PE IR                   SPECTRUM    ASCII       PEDS        1.60        
  -1
124G~1.ASC
22/04/13
15:04:09.00
22/04/13
15:04:09.00
Admin

650.000000
4









SPECTRUM ONE,CPU32 MAIN 00.02.6000 25-JUNE-2003 12:00:00
MIR TGS
MIR
OPTKBR
68128
0.200000

4.000000
STRONG
RATIO
SPECTRUM
MAGNITUDE
UNIVERSAL ATR
DOUBLE

COMBINED


0


#HDR
-1
-1
#GR
CM-1
%T
0.00002384185791015625
0.0
4000.000000
-1.000000
3351
8
97.893185
55.134971
#DATA
4000.000000	97.155279 
3999.000000	97.142944 
3998.000000	97.139468 
3997.000000	97.145546 
3996.000000	97.160210 
3995.000000	97.180878 
3994.000000	97.206587 
3993.000000	97.237467 
3992.000000	97.268322 
3991.000000	97.284206 
3990.000000	97.268228 
3989.000000	97.219124 
3988.000000	97.161133 
3987.000000	97.131106 
3986.000000	97.149236 
3985.000000	97.200343 
3984.000000	97.245656 
3983.000000	97.256193 
3982.000000	97.235312 
3981.000000	97.209018 
3980.000000	97.197968 
3979.000000	97.200628 
3978.000000	97.201915 
3977.000000	97.193657 
3976.000000	97.184031 
3975.000000	97.187399 
3974.000000	97.206950 
3973.000000	97.229781 
3972.000000	97.238004 
3971.000000	97.223357 
3970.000000	97.191520 
3969.000000	97.155409 
3968.000000	97.126716 
3967.000000	97.112786 
3966.000000	97.118512 
3965.000000	97.147275 
3964.000000	97.197937 
3963.000000	97.260026 
3962.000000	97.312829 
3961.000000	97.333493 
3960.000000	97.310247 
3959.000000	97.251066 
3958.000000	97.181220 
3957.000000	97.128896 
3956.000000	97.107622 
3955.000000	97.108111 
3954.000000	97.108067 
3953.000000	97.091994 
3952.000000	97.063863 
3951.000000	97.043449 
3950.000000	97.048624 
3949.000000	97.078063 
3948.000000	97.111097 
3947.000000	97.127095 
3946.000000	97.123916 
3945.000000	97.116835 
3944.000000	97.124162 
3943.000000	97.154495 
3942.000000	97.203279 
3941.000000	97.257666 
3940.000000	97.301388 
3939.000000	97.319168 
3938.000000	97.304266 
3937.000000	97.263562 
3936.000000	97.213439 
3935.000000	97.168657 
3934.000000	97.138338 
3933.000000	97.129790 
3932.000000	97.147080 
3931.000000	97.182698 
3930.000000	97.215975 
3929.000000	97.229034 
3928.000000	97.222918 
3927.000000	97.213821 
3926.000000	97.213420 
3925.000000	97.219987 
3924.000000	97.231527 
3923.000000	97.254834 
3922.000000	97.292161 
3921.000000	97.329763 
3920.000000	97.350397 
3919.000000	97.352972 
3918.000000	97.352689 
3917.000000	97.363371 
3916.000000	97.386728 
3915.000000	97.415640 
3914.000000	97.436071 
3913.000000	97.430660 
3912.000000	97.389894 
3911.000000	97.321751 
3910.000000	97.248550 
3909.000000	97.191401 
3908.000000	97.161628 
3907.000000	97.158416 
3906.000000	97.172619 
3905.000000	97.193648 
3904.000000	97.219625 
3903.000000	97.259536 
3902.000000	97.317115 
3901.000000	97.373623 
3900.000000	97.396515 
3899.000000	97.370897 
3898.000000	97.310717 
3897.000000	97.239380 
3896.000000	97.170591 
3895.000000	97.115689 
3894.000000	97.093752 
3893.000000	97.117009 
3892.000000	97.163932 
3891.000000	97.191744 
3890.000000	97.197214 
3889.000000	97.224452 
3888.000000	97.302728 
3887.000000	97.398125 
3886.000000	97.439914 
3885.000000	97.403490 
3884.000000	97.340122 
3883.000000	97.306554 
3882.000000	97.303862 
3881.000000	97.295472 
3880.000000	97.261352 
3879.000000	97.223322 
3878.000000	97.217274 
3877.000000	97.250683 
3876.000000	97.292993 
3875.000000	97.302741 
3874.000000	97.273963 
3873.000000	97.250943 
3872.000000	97.275932 
3871.000000	97.327841 
3870.000000	97.342798 
3869.000000	97.307627 
3868.000000	97.283869 
3867.000000	97.314808 
3866.000000	97.366215 
3865.000000	97.380375 
3864.000000	97.351290 
3863.000000	97.319416 
3862.000000	97.310078 
3861.000000	97.315114 
3860.000000	97.320818 
3859.000000	97.320401 
3858.000000	97.313014 
3857.000000	97.299143 
3856.000000	97.288318 
3855.000000	97.307175 
3854.000000	97.372095 
3853.000000	97.446987 
3852.000000	97.491823 
3851.000000	97.507344 
3850.000000	97.494354 
3849.000000	97.448371 
3848.000000	97.381410 
3847.000000	97.319395 
3846.000000	97.279476 
3845.000000	97.262016 
3844.000000	97.259960 
3843.000000	97.272841 
3842.000000	97.309901 
3841.000000	97.371566 
3840.000000	97.435536 
3839.000000	97.471519 
3838.000000	97.473727 
3837.000000	97.459913 
3836.000000	97.449316 
3835.000000	97.446979 
3834.000000	97.443118 
3833.000000	97.420809 
3832.000000	97.371282 
3831.000000	97.308394 
3830.000000	97.261431 
3829.000000	97.250041 
3828.000000	97.263764 
3827.000000	97.270355 
3826.000000	97.255516 
3825.000000	97.248470 
3824.000000	97.291790 
3823.000000	97.386047 
3822.000000	97.473475 
3821.000000	97.490207 
3820.000000	97.450105 
3819.000000	97.423635 
3818.000000	97.437420 
3817.000000	97.449922 
3816.000000	97.419198 
3815.000000	97.369172 
3814.000000	97.353017 
3813.000000	97.372530 
3812.000000	97.380273 
3811.000000	97.349617 
3810.000000	97.310454 
3809.000000	97.310280 
3808.000000	97.347893 
3807.000000	97.371660 
3806.000000	97.357754 
3805.000000	97.348274 
3804.000000	97.381829 
3803.000000	97.430417 
3802.000000	97.423752 
3801.000000	97.337405 
3800.000000	97.235134 
3799.000000	97.188544 
3798.000000	97.200160 
3797.000000	97.224326 
3796.000000	97.229913 
3795.000000	97.227195 
3794.000000	97.235008 
3793.000000	97.248092 
3792.000000	97.247113 
3791.000000	97.228334 
3790.000000	97.206907 
3789.000000	97.198139 
3788.000000	97.205711 
3787.000000	97.225291 
3786.000000	97.247427 
3785.000000	97.260604 
3784.000000	97.261415 
3783.000000	97.261855 
3782.000000	97.274820 
3781.000000	97.295188 
3780.000000	97.302862 
3779.000000	97.287343 
3778.000000	97.264826 
3777.000000	97.259132 
3776.000000	97.271427 
3775.000000	97.279640 
3774.000000	97.268789 
3773.000000	97.248568 
3772.000000	97.235905 
3771.000000	97.232378 
3770.000000	97.231572 
3769.000000	97.239401 
3768.000000	97.267856 
3767.000000	97.305988 
3766.000000	97.319345 
3765.000000	97.289854 
3764.000000	97.244739 
3763.000000	97.228324 
3762.000000	97.248212 
3761.000000	97.272412 
3760.000000	97.278890 
3759.000000	97.281678 
3758.000000	97.301032 
3757.000000	97.333879 
3756.000000	97.369608 
3755.000000	97.402332 
3754.000000	97.422411 
3753.000000	97.422553 
3752.000000	97.420749 
3751.000000	97.440075 
3750.000000	97.455403 
3749.000000	97.428741 
3748.000000	97.388233 
3747.000000	97.397896 
3746.000000	97.468485 
3745.000000	97.516790 
3744.000000	97.456485 
3743.000000	97.330533 
3742.000000	97.239151 
3741.000000	97.204592 
3740.000000	97.191491 
3739.000000	97.174736 
3738.000000	97.158326 
3737.000000	97.147931 
3736.000000	97.151837 
3735.000000	97.198950 
3734.000000	97.302565 
3733.000000	97.410570 
3732.000000	97.440630 
3731.000000	97.371994 
3730.000000	97.263466 
3729.000000	97.183098 
3728.000000	97.151301 
3727.000000	97.152070 
3726.000000	97.180003 
3725.000000	97.248905 
3724.000000	97.349003 
3723.000000	97.433448 
3722.000000	97.456966 
3721.000000	97.417159 
3720.000000	97.348456 
3719.000000	97.282397 
3718.000000	97.226994 
3717.000000	97.181478 
3716.000000	97.159421 
3715.000000	97.177953 
3714.000000	97.230693 
3713.000000	97.284161 
3712.000000	97.305036 
3711.000000	97.290298 
3710.000000	97.265317 
3709.000000	97.253983 
3708.000000	97.259103 
3707.000000	97.270941 
3706.000000	97.282546 
3705.000000	97.291523 
3704.000000	97.291427 
3703.000000	97.274573 
3702.000000	97.244275 
3701.000000	97.217377 
3700.000000	97.213525 
3699.000000	97.237976 
3698.000000	97.270526 
3697.000000	97.277050 
3696.000000	97.240435 
3695.000000	97.174336 
3694.000000	97.107390 
3693.000000	97.069443 
3692.000000	97.092565 
3691.000000	97.198768 
3690.000000	97.364963 
3689.000000	97.514387 
3688.000000	97.579888 
3687.000000	97.564825 
3686.000000	97.512924 
3685.000000	97.447964 
3684.000000	97.369884 
3683.000000	97.286341 
3682.000000	97.221828 
3681.000000	97.187986 
3680.000000	97.170890 
3679.000000	97.165228 
3678.000000	97.189682 
3677.000000	97.253051 
3676.000000	97.318590 
3675.000000	97.346993 
3674.000000	97.365132 
3673.000000	97.422791 
3672.000000	97.501946 
3671.000000	97.534481 
3670.000000	97.496079 
3669.000000	97.441249 
3668.000000	97.423069 
3667.000000	97.429827 
3666.000000	97.417801 
3665.000000	97.367991 
3664.000000	97.302427 
3663.000000	97.253753 
3662.000000	97.232229 
3661.000000	97.225640 
3660.000000	97.225632 
3659.000000	97.238235 
3658.000000	97.266841 
3657.000000	97.294742 
3656.000000	97.297176 
3655.000000	97.278706 
3654.000000	97.270265 
3653.000000	97.287131 
3652.000000	97.307975 
3651.000000	97.305319 
3650.000000	97.286907 
3649.000000	97.283292 
3648.000000	97.299746 
3647.000000	97.314885 
3646.000000	97.315050 
3645.000000	97.303731 
3644.000000	97.289236 
3643.000000	97.275953 
3642.000000	97.268520 
3641.000000	97.273038 
3640.000000	97.290049 
3639.000000	97.307978 
3638.000000	97.313962 
3637.000000	97.307988 
3636.000000	97.294206 
3635.000000	97.264978 
3634.000000	97.213026 
3633.000000	97.165259 
3632.000000	97.178157 
3631.000000	97.283616 
3630.000000	97.432495 
3629.000000	97.513579 
3628.000000	97.479893 
3627.000000	97.399694 
3626.000000	97.344985 
3625.000000	97.318969 
3624.000000	97.292156 
3623.000000	97.255518 
3622.000000	97.227792 
3621.000000	97.223725 
3620.000000	97.232910 
3619.000000	97.233859 
3618.000000	97.223353 
3617.000000	97.220654 
3616.000000	97.241365 
3615.000000	97.276400 
3614.000000	97.301424 
3613.000000	97.305263 
3612.000000	97.302946 
3611.000000	97.315990 
3610.000000	97.343917 
3609.000000	97.363310 
3608.000000	97.353874 
3607.000000	97.319948 
3606.000000	97.283261 
3605.000000	97.260856 
3604.000000	97.255757 
3603.000000	97.261752 
3602.000000	97.270576 
3601.000000	97.276345 
3600.000000	97.281298 
3599.000000	97.291260 
3598.000000	97.303503 
3597.000000	97.307083 
3596.000000	97.296146 
3595.000000	97.276537 
3594.000000	97.256378 
3593.000000	97.236426 
3592.000000	97.213626 
3591.000000	97.193015 
3590.000000	97.189774 
3589.000000	97.217091 
3588.000000	97.266879 
3587.000000	97.308782 
3586.000000	97.316965 
3585.000000	97.290196 
3584.000000	97.245342 
3583.000000	97.205572 
3582.000000	97.190206 
3581.000000	97.202585 
3580.000000	97.226676 
3579.000000	97.241800 
3578.000000	97.239940 
3577.000000	97.227716 
3576.000000	97.214024 
3575.000000	97.202005 
3574.000000	97.194035 
3573.000000	97.197442 
3572.000000	97.220100 
3571.000000	97.261487 
3570.000000	97.310159 
3569.000000	97.350855 
3568.000000	97.380018 
3567.000000	97.410699 
3566.000000	97.452397 
3565.000000	97.490739 
3564.000000	97.494071 
3563.000000	97.443007 
3562.000000	97.353944 
3561.000000	97.272582 
3560.000000	97.236402 
3559.000000	97.244142 
3558.000000	97.264347 
3557.000000	97.271914 
3556.000000	97.271142 
3555.000000	97.282525 
3554.000000	97.309241 
3553.000000	97.322648 
3552.000000	97.289534 
3551.000000	97.211550 
3550.000000	97.126360 
3549.000000	97.071069 
3548.000000	97.053662 
3547.000000	97.060164 
3546.000000	97.080530 
3545.000000	97.118148 
3544.000000	97.173952 
3543.000000	97.232868 
3542.000000	97.273472 
3541.000000	97.286719 
3540.000000	97.282071 
3539.000000	97.274389 
3538.000000	97.268494 
3537.000000	97.257385 
3536.000000	97.234998 
3535.000000	97.207091 
3534.000000	97.187315 
3533.000000	97.184607 
3532.000000	97.196639 
3531.000000	97.215006 
3530.000000	97.232430 
3529.000000	97.243812 
3528.000000	97.244533 
3527.000000	97.234293 
3526.000000	97.221568 
3525.000000	97.218742 
3524.000000	97.229824 
3523.000000	97.244663 
3522.000000	97.247700 
3521.000000	97.231477 
3520.000000	97.200586 
3519.000000	97.164747 
3518.000000	97.131704 
3517.000000	97.105989 
3516.000000	97.091303 
3515.000000	97.091771 
3514.000000	97.110965 
3513.000000	97.149985 
3512.000000	97.205281 
3511.000000	97.267895 
3510.000000	97.323708 
3509.000000	97.355707 
3508.000000	97.351973 
3507.000000	97.317331 
3506.000000	97.275418 
3505.000000	97.253513 
3504.000000	97.258981 
3503.000000	97.272923 
3502.000000	97.272052 
3501.000000	97.253786 
3500.000000	97.234577 
3499.000000	97.229304 
3498.000000	97.238825 
3497.000000	97.253990 
3496.000000	97.264116 
3495.000000	97.261018 
3494.000000	97.242525 
3493.000000	97.215545 
3492.000000	97.190970 
3491.000000	97.172834 
3490.000000	97.156304 
3489.000000	97.139388 
3488.000000	97.132447 
3487.000000	97.150056 
3486.000000	97.193003 
3485.000000	97.242110 
3484.000000	97.270704 
3483.000000	97.264927 
3482.000000	97.234873 
3481.000000	97.205869 
3480.000000	97.195553 
3479.000000	97.198685 
3478.000000	97.196182 
3477.000000	97.177910 
3476.000000	97.154264 
3475.000000	97.144537 
3474.000000	97.157571 
3473.000000	97.186033 
3472.000000	97.214073 
3471.000000	97.225621 
3470.000000	97.210212 
3469.000000	97.170036 
3468.000000	97.122839 
3467.000000	97.091867 
3466.000000	97.089723 
3465.000000	97.112317 
3464.000000	97.146801 
3463.000000	97.181905 
3462.000000	97.211600 
3461.000000	97.234372 
3460.000000	97.250870 
3459.000000	97.259204 
3458.000000	97.252943 
3457.000000	97.228955 
3456.000000	97.199079 
3455.000000	97.187094 
3454.000000	97.206355 
3453.000000	97.242814 
3452.000000	97.267355 
3451.000000	97.265807 
3450.000000	97.249771 
3449.000000	97.238403 
3448.000000	97.238453 
3447.000000	97.246090 
3446.000000	97.258875 
3445.000000	97.274501 
3444.000000	97.281641 
3443.000000	97.265510 
3442.000000	97.226613 
3441.000000	97.185640 
3440.000000	97.164966 
3439.000000	97.170156 
3438.000000	97.192305 
3437.000000	97.221112 
3436.000000	97.249259 
3435.000000	97.269705 
3434.000000	97.277950 
3433.000000	97.277562 
3432.000000	97.276294 
3431.000000	97.275488 
3430.000000	97.269358 
3429.000000	97.258239 
3428.000000	97.256369 
3427.000000	97.278969 
3426.000000	97.323205 
3425.000000	97.367462 
3424.000000	97.389476 
3423.000000	97.380913 
3422.000000	97.346515 
3421.000000	97.298398 
3420.000000	97.254581 
3419.000000	97.233923 
3418.000000	97.242308 
3417.000000	97.264811 
3416.000000	97.277865 
3415.000000	97.270090 
3414.000000	97.247685 
3413.000000	97.221410 
3412.000000	97.196285 
3411.000000	97.175909 
3410.000000	97.168404 
3409.000000	97.181394 
3408.000000	97.213455 
3407.000000	97.254284 
3406.000000	97.291254 
3405.000000	97.313928 
3404.000000	97.317461 
3403.000000	97.307157 
3402.000000	97.297202 
3401.000000	97.298792 
3400.000000	97.309766 
3399.000000	97.320090 
3398.000000	97.325820 
3397.000000	97.331311 
3396.000000	97.338170 
3395.000000	97.341272 
3394.000000	97.338680 
3393.000000	97.336703 
3392.000000	97.338470 
3391.000000	97.334544 
3390.000000	97.315185 
3389.000000	97.288779 
3388.000000	97.277279 
3387.000000	97.290253 
3386.000000	97.310053 
3385.000000	97.308051 
3384.000000	97.273814 
3383.000000	97.225974 
3382.000000	97.196663 
3381.000000	97.205849 
3380.000000	97.245725 
3379.000000	97.286149 
3378.000000	97.299075 
3377.000000	97.283035 
3376.000000	97.264971 
3375.000000	97.276032 
3374.000000	97.323629 
3373.000000	97.384602 
3372.000000	97.423525 
3371.000000	97.419370 
3370.000000	97.379283 
3369.000000	97.330286 
3368.000000	97.296679 
3367.000000	97.283349 
3366.000000	97.278836 
3365.000000	97.271443 
3364.000000	97.259702 
3363.000000	97.249087 
3362.000000	97.243430 
3361.000000	97.240650 
3360.000000	97.234249 
3359.000000	97.218477 
3358.000000	97.194723 
3357.000000	97.173455 
3356.000000	97.167534 
3355.000000	97.182901 
3354.000000	97.216158 
3353.000000	97.257948 
3352.000000	97.294660 
3351.000000	97.311344 
3350.000000	97.303409 
3349.000000	97.286929 
3348.000000	97.287714 
3347.000000	97.314182 
3346.000000	97.346782 
3345.000000	97.359406 
3344.000000	97.346149 
3343.000000	97.321786 
3342.000000	97.301825 
3341.000000	97.291401 
3340.000000	97.290495 
3339.000000	97.298892 
3338.000000	97.313157 
3337.000000	97.325781 
3336.000000	97.331218 
3335.000000	97.329619 
3334.000000	97.323273 
3333.000000	97.313328 
3332.000000	97.301429 
3331.000000	97.290283 
3330.000000	97.279866 
3329.000000	97.266423 
3328.000000	97.248969 
3327.000000	97.235540 
3326.000000	97.239291 
3325.000000	97.266864 
3324.000000	97.310337 
3323.000000	97.350320 
3322.000000	97.368109 
3321.000000	97.357810 
3320.000000	97.329313 
3319.000000	97.300472 
3318.000000	97.285796 
3317.000000	97.290103 
3316.000000	97.308555 
3315.000000	97.330322 
3314.000000	97.344610 
3313.000000	97.346974 
3312.000000	97.340081 
3311.000000	97.326807 
3310.000000	97.303971 
3309.000000	97.266661 
3308.000000	97.219644 
3307.000000	97.180910 
3306.000000	97.169600 
3305.000000	97.188055 
3304.000000	97.216311 
3303.000000	97.228013 
3302.000000	97.215939 
3301.000000	97.201089 
3300.000000	97.211903 
3299.000000	97.253531 
3298.000000	97.301452 
3297.000000	97.326152 
3296.000000	97.318892 
3295.000000	97.291560 
3294.000000	97.260229 
3293.000000	97.236627 
3292.000000	97.229170 
3291.000000	97.240397 
3290.000000	97.261863 
3289.000000	97.278553 
3288.000000	97.280093 
3287.000000	97.264722 
3286.000000	97.235894 
3285.000000	97.202829 
3284.000000	97.182004 
3283.000000	97.186316 
3282.000000	97.209753 
3281.000000	97.231608 
3280.000000	97.239582 
3279.000000	97.240792 
3278.000000	97.246236 
3277.000000	97.253838 
3276.000000	97.254727 
3275.000000	97.249818 
3274.000000	97.249808 
3273.000000	97.260354 
3272.000000	97.275414 
3271.000000	97.285721 
3270.000000	97.288396 
3269.000000	97.287341 
3268.000000	97.287593 
3267.000000	97.289358 
3266.000000	97.285564 
3265.000000	97.267650 
3264.000000	97.236417 
3263.000000	97.204188 
3262.000000	97.182796 
3261.000000	97.172664 
3260.000000	97.168269 
3259.000000	97.171120 
3258.000000	97.189924 
3257.000000	97.226644 
3256.000000	97.267931 
3255.000000	97.293431 
3254.000000	97.291350 
3253.000000	97.266661 
3252.000000	97.237130 
3251.000000	97.220756 
3250.000000	97.222755 
3249.000000	97.233392 
3248.000000	97.240723 
3247.000000	97.245411 
3246.000000	97.260065 
3245.000000	97.293926 
3244.000000	97.341419 
3243.000000	97.385572 
3242.000000	97.408605 
3241.000000	97.399640 
3240.000000	97.359452 
3239.000000	97.302615 
3238.000000	97.251526 
3237.000000	97.221971 
3236.000000	97.212951 
3235.000000	97.211893 
3234.000000	97.208660 
3233.000000	97.202810 
3232.000000	97.199533 
3231.000000	97.203132 
3230.000000	97.215392 
3229.000000	97.236387 
3228.000000	97.263295 
3227.000000	97.289047 
3226.000000	97.304671 
3225.000000	97.304179 
3224.000000	97.287324 
3223.000000	97.258668 
3222.000000	97.225970 
3221.000000	97.199314 
3220.000000	97.187523 
3219.000000	97.190908 
3218.000000	97.198568 
3217.000000	97.197819 
3216.000000	97.188670 
3215.000000	97.185964 
3214.000000	97.203262 
3213.000000	97.234838 
3212.000000	97.256430 
3211.000000	97.244620 
3210.000000	97.195996 
3209.000000	97.130702 
3208.000000	97.080081 
3207.000000	97.067541 
3206.000000	97.093795 
3205.000000	97.137193 
3204.000000	97.171641 
3203.000000	97.187068 
3202.000000	97.191518 
3201.000000	97.194819 
3200.000000	97.196649 
3199.000000	97.192808 
3198.000000	97.185643 
3197.000000	97.180942 
3196.000000	97.179073 
3195.000000	97.178629 
3194.000000	97.187214 
3193.000000	97.217089 
3192.000000	97.265814 
3191.000000	97.310262 
3190.000000	97.327565 
3189.000000	97.317293 
3188.000000	97.295715 
3187.000000	97.272855 
3186.000000	97.245982 
3185.000000	97.215062 
3184.000000	97.192124 
3183.000000	97.188967 
3182.000000	97.202903 
3181.000000	97.221551 
3180.000000	97.237233 
3179.000000	97.249169 
3178.000000	97.254306 
3177.000000	97.246119 
3176.000000	97.225537 
3175.000000	97.205832 
3174.000000	97.200944 
3173.000000	97.211526 
3172.000000	97.226222 
3171.000000	97.234354 
3170.000000	97.233134 
3169.000000	97.224203 
3168.000000	97.209583 
3167.000000	97.193845 
3166.000000	97.185753 
3165.000000	97.191537 
3164.000000	97.205445 
3163.000000	97.211084 
3162.000000	97.195874 
3161.000000	97.163823 
3160.000000	97.132053 
3159.000000	97.115257 
3158.000000	97.115966 
3157.000000	97.129002 
3156.000000	97.149241 
3155.000000	97.170703 
3154.000000	97.183009 
3153.000000	97.178188 
3152.000000	97.162515 
3151.000000	97.153560 
3150.000000	97.160167 
3149.000000	97.170301 
3148.000000	97.164814 
3147.000000	97.140402 
3146.000000	97.112810 
3145.000000	97.099276 
3144.000000	97.104395 
3143.000000	97.121976 
3142.000000	97.142587 
3141.000000	97.157428 
3140.000000	97.162294 
3139.000000	97.162228 
3138.000000	97.167631 
3137.000000	97.181502 
3136.000000	97.193853 
3135.000000	97.192824 
3134.000000	97.178805 
3133.000000	97.163802 
3132.000000	97.159047 
3131.000000	97.166708 
3130.000000	97.180645 
3129.000000	97.190185 
3128.000000	97.185344 
3127.000000	97.164563 
3126.000000	97.137381 
3125.000000	97.115680 
3124.000000	97.103620 
3123.000000	97.099471 
3122.000000	97.103438 
3121.000000	97.116528 
3120.000000	97.133098 
3119.000000	97.142832 
3118.000000	97.141729 
3117.000000	97.134567 
3116.000000	97.124644 
3115.000000	97.108618 
3114.000000	97.085678 
3113.000000	97.065035 
3112.000000	97.057869 
3111.000000	97.065141 
3110.000000	97.078484 
3109.000000	97.090786 
3108.000000	97.101054 
3107.000000	97.110420 
3106.000000	97.117822 
3105.000000	97.119974 
3104.000000	97.113976 
3103.000000	97.100412 
3102.000000	97.084086 
3101.000000	97.069813 
3100.000000	97.057552 
3099.000000	97.045097 
3098.000000	97.035773 
3097.000000	97.037662 
3096.000000	97.052180 
3095.000000	97.068718 
3094.000000	97.075704 
3093.000000	97.072901 
3092.000000	97.067354 
3091.000000	97.061458 
3090.000000	97.052305 
3089.000000	97.040834 
3088.000000	97.033551 
3087.000000	97.033888 
3086.000000	97.037490 
3085.000000	97.037356 
3084.000000	97.029496 
3083.000000	97.013385 
3082.000000	96.991714 
3081.000000	96.970046 
3080.000000	96.951376 
3079.000000	96.930706 
3078.000000	96.901775 
3077.000000	96.870686 
3076.000000	96.855001 
3075.000000	96.864009 
3074.000000	96.884851 
3073.000000	96.894180 
3072.000000	96.881831 
3071.000000	96.859112 
3070.000000	96.845282 
3069.000000	96.849403 
3068.000000	96.863110 
3067.000000	96.867136 
3066.000000	96.847156 
3065.000000	96.808006 
3064.000000	96.771723 
3063.000000	96.757465 
3062.000000	96.763282 
3061.000000	96.770579 
3060.000000	96.765105 
3059.000000	96.749402 
3058.000000	96.735400 
3057.000000	96.730650 
3056.000000	96.734004 
3055.000000	96.739985 
3054.000000	96.743096 
3053.000000	96.739956 
3052.000000	96.731400 
3051.000000	96.722529 
3050.000000	96.718192 
3049.000000	96.718137 
3048.000000	96.717342 
3047.000000	96.709904 
3046.000000	96.691139 
3045.000000	96.658080 
3044.000000	96.612023 
3043.000000	96.561227 
3042.000000	96.517589 
3041.000000	96.487784 
3040.000000	96.467836 
3039.000000	96.446968 
3038.000000	96.415420 
3037.000000	96.367909 
3036.000000	96.303028 
3035.000000	96.223499 
3034.000000	96.136843 
3033.000000	96.051845 
3032.000000	95.971928 
3031.000000	95.893053 
3030.000000	95.808589 
3029.000000	95.714445 
3028.000000	95.609689 
3027.000000	95.495744 
3026.000000	95.375902 
3025.000000	95.251293 
3024.000000	95.114726 
3023.000000	94.952731 
3022.000000	94.758100 
3021.000000	94.537495 
3020.000000	94.302188 
3019.000000	94.054277 
3018.000000	93.788532 
3017.000000	93.506997 
3016.000000	93.224369 
3015.000000	92.957171 
3014.000000	92.713675 
3013.000000	92.496781 
3012.000000	92.311423 
3011.000000	92.165827 
3010.000000	92.069669 
3009.000000	92.033909 
3008.000000	92.067243 
3007.000000	92.166221 
3006.000000	92.309887 
3005.000000	92.470572 
3004.000000	92.632764 
3003.000000	92.799444 
3002.000000	92.978692 
3001.000000	93.166449 
3000.000000	93.344538 
2999.000000	93.495042 
2998.000000	93.615098 
2997.000000	93.717128 
2996.000000	93.814912 
2995.000000	93.910242 
2994.000000	93.993173 
2993.000000	94.053215 
2992.000000	94.087743 
2991.000000	94.100894 
2990.000000	94.099079 
2989.000000	94.089665 
2988.000000	94.079636 
2987.000000	94.069790 
2986.000000	94.049901 
2985.000000	94.003838 
2984.000000	93.923206 
2983.000000	93.816240 
2982.000000	93.701238 
2981.000000	93.589114 
2980.000000	93.471879 
2979.000000	93.329774 
2978.000000	93.149980 
2977.000000	92.935927 
2976.000000	92.697223 
2975.000000	92.434608 
2974.000000	92.139439 
2973.000000	91.805434 
2972.000000	91.434338 
2971.000000	91.029436 
2970.000000	90.589240 
2969.000000	90.110154 
2968.000000	89.591901 
2967.000000	89.039718 
2966.000000	88.466561 
2965.000000	87.895153 
2964.000000	87.351675 
2963.000000	86.851330 
2962.000000	86.390720 
2961.000000	85.955642 
2960.000000	85.533926 
2959.000000	85.120817 
2958.000000	84.719044 
2957.000000	84.339464 
2956.000000	83.998357 
2955.000000	83.707934 
2954.000000	83.469102 
2953.000000	83.275280 
2952.000000	83.119944 
2951.000000	82.996230 
2950.000000	82.891330 
2949.000000	82.785836 
2948.000000	82.657293 
2947.000000	82.480086 
2946.000000	82.224893 
2945.000000	81.866494 
2944.000000	81.394826 
2943.000000	80.815218 
2942.000000	80.137068 
2941.000000	79.365937 
2940.000000	78.506495 
2939.000000	77.567940 
2938.000000	76.564403 
2937.000000	75.512640 
2936.000000	74.429451 
2935.000000	73.328363 
2934.000000	72.219317 
2933.000000	71.116355 
2932.000000	70.045829 
2931.000000	69.040844 
2930.000000	68.125107 
2929.000000	67.307387 
2928.000000	66.597053 
2927.000000	66.021462 
2926.000000	65.621461 
2925.000000	65.429783 
2924.000000	65.457532 
2923.000000	65.699959 
2922.000000	66.148108 
2921.000000	66.792520 
2920.000000	67.618923 
2919.000000	68.600592 
2918.000000	69.691339 
2917.000000	70.827058 
2916.000000	71.942109 
2915.000000	72.991360 
2914.000000	73.959662 
2913.000000	74.854325 
2912.000000	75.691897 
2911.000000	76.488311 
2910.000000	77.252969 
2909.000000	77.986459 
2908.000000	78.684116 
2907.000000	79.343071 
2906.000000	79.966711 
2905.000000	80.563756 
2904.000000	81.143467 
2903.000000	81.709237 
2902.000000	82.255414 
2901.000000	82.772861 
2900.000000	83.260668 
2899.000000	83.730151 
2898.000000	84.194062 
2897.000000	84.654051 
2896.000000	85.102138 
2895.000000	85.532249 
2894.000000	85.944803 
2893.000000	86.340278 
2892.000000	86.714242 
2891.000000	87.061592 
2890.000000	87.382557 
2889.000000	87.681413 
2888.000000	87.960125 
2887.000000	88.214762 
2886.000000	88.437960 
2885.000000	88.624297 
2884.000000	88.772864 
2883.000000	88.883073 
2882.000000	88.947102 
2881.000000	88.948805 
2880.000000	88.873784 
2879.000000	88.721368 
2878.000000	88.504967 
2877.000000	88.241700 
2876.000000	87.945649 
2875.000000	87.633209 
2874.000000	87.330612 
2873.000000	87.068343 
2872.000000	86.862807 
2871.000000	86.701196 
2870.000000	86.543573 
2869.000000	86.338634 
2868.000000	86.038880 
2867.000000	85.607675 
2866.000000	85.022512 
2865.000000	84.279103 
2864.000000	83.390924 
2863.000000	82.379025 
2862.000000	81.262324 
2861.000000	80.062348 
2860.000000	78.818673 
2859.000000	77.595144 
2858.000000	76.469227 
2857.000000	75.520596 
2856.000000	74.829747 
2855.000000	74.476431 
2854.000000	74.521490 
2853.000000	74.981269 
2852.000000	75.819061 
2851.000000	76.959312 
2850.000000	78.307427 
2849.000000	79.762334 
2848.000000	81.228376 
2847.000000	82.631929 
2846.000000	83.932967 
2845.000000	85.121641 
2844.000000	86.204157 
2843.000000	87.188907 
2842.000000	88.080195 
2841.000000	88.880099 
2840.000000	89.593480 
2839.000000	90.228857 
2838.000000	90.793603 
2837.000000	91.290875 
2836.000000	91.723731 
2835.000000	92.100711 
2834.000000	92.434394 
2833.000000	92.734917 
2832.000000	93.007125 
2831.000000	93.253428 
2830.000000	93.477225 
2829.000000	93.683694 
2828.000000	93.878078 
2827.000000	94.061433 
2826.000000	94.226943 
2825.000000	94.365156 
2824.000000	94.478359 
2823.000000	94.587598 
2822.000000	94.717589 
2821.000000	94.871390 
2820.000000	95.023959 
2819.000000	95.143678 
2818.000000	95.219572 
2817.000000	95.267800 
2816.000000	95.315797 
2815.000000	95.381727 
2814.000000	95.465009 
2813.000000	95.552300 
2812.000000	95.632259 
2811.000000	95.704865 
2810.000000	95.775857 
2809.000000	95.845054 
2808.000000	95.905789 
2807.000000	95.955676 
2806.000000	96.000649 
2805.000000	96.045273 
2804.000000	96.085743 
2803.000000	96.117723 
2802.000000	96.145402 
2801.000000	96.175410 
2800.000000	96.205833 
2799.000000	96.230284 
2798.000000	96.251007 
2797.000000	96.277841 
2796.000000	96.312325 
2795.000000	96.341992 
2794.000000	96.354993 
2793.000000	96.354113 
2792.000000	96.352293 
2791.000000	96.360333 
2790.000000	96.383755 
2789.000000	96.424622 
2788.000000	96.477400 
2787.000000	96.525772 
2786.000000	96.552684 
2785.000000	96.555425 
2784.000000	96.546245 
2783.000000	96.538584 
2782.000000	96.537781 
2781.000000	96.544351 
2780.000000	96.558478 
2779.000000	96.578179 
2778.000000	96.598306 
2777.000000	96.615389 
2776.000000	96.630944 
2775.000000	96.647648 
2774.000000	96.665222 
2773.000000	96.682163 
2772.000000	96.698002 
2771.000000	96.710580 
2770.000000	96.714264 
2769.000000	96.705654 
2768.000000	96.690130 
2767.000000	96.678596 
2766.000000	96.677003 
2765.000000	96.681732 
2764.000000	96.685773 
2763.000000	96.686980 
2762.000000	96.688860 
2761.000000	96.694714 
2760.000000	96.703123 
2759.000000	96.709945 
2758.000000	96.713991 
2757.000000	96.719066 
2756.000000	96.729352 
2755.000000	96.743678 
2754.000000	96.755939 
2753.000000	96.760944 
2752.000000	96.758762 
2751.000000	96.754335 
2750.000000	96.754888 
2749.000000	96.766517 
2748.000000	96.789441 
2747.000000	96.815501 
2746.000000	96.832807 
2745.000000	96.834061 
2744.000000	96.819408 
2743.000000	96.793093 
2742.000000	96.761893 
2741.000000	96.736214 
2740.000000	96.726087 
2739.000000	96.732702 
2738.000000	96.747766 
2737.000000	96.763442 
2736.000000	96.778183 
2735.000000	96.790172 
2734.000000	96.791775 
2733.000000	96.777451 
2732.000000	96.753747 
2731.000000	96.734627 
2730.000000	96.728365 
2729.000000	96.734249 
2728.000000	96.749308 
2727.000000	96.770338 
2726.000000	96.789886 
2725.000000	96.798807 
2724.000000	96.795734 
2723.000000	96.788373 
2722.000000	96.783058 
2721.000000	96.778382 
2720.000000	96.772196 
2719.000000	96.769139 
2718.000000	96.775110 
2717.000000	96.785896 
2716.000000	96.786871 
2715.000000	96.766667 
2714.000000	96.730930 
2713.000000	96.702226 
2712.000000	96.704574 
2711.000000	96.744731 
2710.000000	96.806299 
2709.000000	96.861683 
2708.000000	96.890153 
2707.000000	96.886798 
2706.000000	96.860140 
2705.000000	96.826423 
2704.000000	96.802950 
2703.000000	96.798467 
2702.000000	96.806865 
2701.000000	96.813651 
2700.000000	96.810104 
2699.000000	96.798751 
2698.000000	96.786446 
2697.000000	96.777837 
2696.000000	96.776315 
2695.000000	96.784452 
2694.000000	96.799417 
2693.000000	96.812428 
2692.000000	96.817201 
2691.000000	96.816496 
2690.000000	96.817151 
2689.000000	96.821173 
2688.000000	96.824380 
2687.000000	96.820838 
2686.000000	96.805921 
2685.000000	96.778887 
2684.000000	96.747263 
2683.000000	96.726461 
2682.000000	96.729269 
2681.000000	96.754412 
2680.000000	96.787011 
2679.000000	96.809758 
2678.000000	96.813215 
2677.000000	96.799572 
2676.000000	96.781110 
2675.000000	96.772504 
2674.000000	96.778575 
2673.000000	96.788916 
2672.000000	96.789100 
2671.000000	96.778080 
2670.000000	96.769954 
2669.000000	96.776380 
2668.000000	96.791134 
2667.000000	96.796235 
2666.000000	96.782491 
2665.000000	96.760498 
2664.000000	96.749754 
2663.000000	96.759030 
2662.000000	96.780281 
2661.000000	96.801305 
2660.000000	96.819205 
2659.000000	96.837277 
2658.000000	96.852733 
2657.000000	96.856695 
2656.000000	96.848277 
2655.000000	96.839765 
2654.000000	96.841257 
2653.000000	96.846335 
2652.000000	96.841813 
2651.000000	96.827842 
2650.000000	96.817705 
2649.000000	96.818123 
2648.000000	96.821647 
2647.000000	96.822591 
2646.000000	96.829429 
2645.000000	96.851890 
2644.000000	96.881837 
2643.000000	96.897972 
2642.000000	96.888985 
2641.000000	96.864160 
2640.000000	96.840822 
2639.000000	96.829132 
2638.000000	96.830732 
2637.000000	96.843602 
2636.000000	96.862002 
2635.000000	96.876419 
2634.000000	96.881187 
2633.000000	96.881667 
2632.000000	96.887937 
2631.000000	96.900015 
2630.000000	96.904402 
2629.000000	96.888890 
2628.000000	96.858563 
2627.000000	96.833024 
2626.000000	96.827540 
2625.000000	96.840133 
2624.000000	96.858466 
2623.000000	96.876155 
2622.000000	96.897844 
2621.000000	96.928147 
2620.000000	96.960896 
2619.000000	96.983513 
2618.000000	96.989530 
2617.000000	96.981821 
2616.000000	96.964800 
2615.000000	96.940943 
2614.000000	96.917334 
2613.000000	96.907219 
2612.000000	96.916808 
2611.000000	96.934070 
2610.000000	96.939647 
2609.000000	96.928826 
2608.000000	96.915044 
2607.000000	96.911487 
2606.000000	96.918359 
2605.000000	96.930918 
2604.000000	96.949851 
2603.000000	96.976375 
2602.000000	97.004463 
2601.000000	97.026938 
2600.000000	97.044495 
2599.000000	97.059015 
2598.000000	97.061516 
2597.000000	97.039347 
2596.000000	96.997189 
2595.000000	96.960249 
2594.000000	96.951274 
2593.000000	96.970125 
2592.000000	96.999217 
2591.000000	97.022469 
2590.000000	97.033892 
2589.000000	97.033934 
2588.000000	97.026236 
2587.000000	97.017545 
2586.000000	97.014491 
2585.000000	97.017754 
2584.000000	97.021079 
2583.000000	97.017270 
2582.000000	97.005653 
2581.000000	96.994978 
2580.000000	96.998750 
2579.000000	97.024189 
2578.000000	97.062740 
2577.000000	97.092881 
2576.000000	97.096401 
2575.000000	97.074112 
2574.000000	97.044948 
2573.000000	97.028464 
2572.000000	97.027821 
2571.000000	97.030274 
2570.000000	97.023854 
2569.000000	97.010987 
2568.000000	97.003206 
2567.000000	97.004681 
2566.000000	97.006851 
2565.000000	97.000999 
2564.000000	96.991040 
2563.000000	96.989760 
2562.000000	97.004806 
2561.000000	97.031007 
2560.000000	97.053972 
2559.000000	97.060022 
2558.000000	97.047952 
2557.000000	97.034213 
2556.000000	97.039915 
2555.000000	97.066729 
2554.000000	97.091886 
2553.000000	97.095204 
2552.000000	97.085379 
2551.000000	97.088009 
2550.000000	97.110713 
2549.000000	97.133532 
2548.000000	97.135523 
2547.000000	97.119288 
2546.000000	97.104965 
2545.000000	97.108390 
2544.000000	97.128217 
2543.000000	97.146865 
2542.000000	97.142260 
2541.000000	97.107667 
2540.000000	97.062760 
2539.000000	97.036380 
2538.000000	97.036697 
2537.000000	97.048668 
2536.000000	97.061891 
2535.000000	97.084463 
2534.000000	97.120711 
2533.000000	97.151516 
2532.000000	97.153721 
2531.000000	97.130344 
2530.000000	97.104595 
2529.000000	97.088820 
2528.000000	97.076196 
2527.000000	97.061556 
2526.000000	97.052953 
2525.000000	97.058825 
2524.000000	97.077987 
2523.000000	97.107769 
2522.000000	97.149109 
2521.000000	97.195454 
2520.000000	97.227506 
2519.000000	97.230830 
2518.000000	97.213428 
2517.000000	97.194997 
2516.000000	97.181253 
2515.000000	97.159623 
2514.000000	97.121037 
2513.000000	97.075728 
2512.000000	97.042580 
2511.000000	97.030250 
2510.000000	97.035788 
2509.000000	97.056961 
2508.000000	97.095402 
2507.000000	97.145845 
2506.000000	97.191779 
2505.000000	97.219792 
2504.000000	97.234575 
2503.000000	97.250719 
2502.000000	97.269266 
2501.000000	97.271644 
2500.000000	97.242495 
2499.000000	97.193363 
2498.000000	97.156260 
2497.000000	97.153261 
2496.000000	97.176608 
2495.000000	97.199508 
2494.000000	97.203025 
2493.000000	97.190458 
2492.000000	97.177332 
2491.000000	97.171496 
2490.000000	97.166659 
2489.000000	97.155784 
2488.000000	97.145886 
2487.000000	97.152038 
2486.000000	97.175094 
2485.000000	97.192964 
2484.000000	97.182554 
2483.000000	97.149053 
2482.000000	97.124425 
2481.000000	97.132985 
2480.000000	97.163572 
2479.000000	97.181532 
2478.000000	97.166205 
2477.000000	97.130685 
2476.000000	97.104279 
2475.000000	97.101085 
2474.000000	97.109236 
2473.000000	97.107179 
2472.000000	97.086227 
2471.000000	97.059315 
2470.000000	97.051717 
2469.000000	97.081291 
2468.000000	97.141523 
2467.000000	97.202894 
2466.000000	97.235596 
2465.000000	97.233935 
2464.000000	97.217619 
2463.000000	97.209941 
2462.000000	97.218364 
2461.000000	97.234501 
2460.000000	97.245337 
2459.000000	97.242582 
2458.000000	97.228139 
2457.000000	97.214440 
2456.000000	97.213767 
2455.000000	97.224013 
2454.000000	97.231362 
2453.000000	97.230184 
2452.000000	97.231204 
2451.000000	97.243516 
2450.000000	97.258431 
2449.000000	97.262158 
2448.000000	97.256651 
2447.000000	97.253225 
2446.000000	97.249443 
2445.000000	97.229052 
2444.000000	97.187078 
2443.000000	97.141588 
2442.000000	97.116448 
2441.000000	97.122258 
2440.000000	97.156477 
2439.000000	97.210376 
2438.000000	97.269030 
2437.000000	97.312436 
2436.000000	97.324249 
2435.000000	97.298443 
2434.000000	97.240330 
2433.000000	97.170555 
2432.000000	97.125795 
2431.000000	97.137828 
2430.000000	97.201847 
2429.000000	97.273992 
2428.000000	97.309483 
2427.000000	97.298690 
2426.000000	97.262663 
2425.000000	97.225684 
2424.000000	97.202419 
2423.000000	97.201172 
2422.000000	97.222783 
2421.000000	97.255758 
2420.000000	97.281876 
2419.000000	97.287702 
2418.000000	97.267842 
2417.000000	97.224513 
2416.000000	97.173138 
2415.000000	97.141864 
2414.000000	97.150962 
2413.000000	97.190788 
2412.000000	97.228801 
2411.000000	97.239530 
2410.000000	97.221591 
2409.000000	97.188696 
2408.000000	97.155777 
2407.000000	97.134478 
2406.000000	97.129094 
2405.000000	97.130233 
2404.000000	97.121215 
2403.000000	97.098732 
2402.000000	97.082702 
2401.000000	97.098930 
2400.000000	97.153050 
2399.000000	97.223581 
2398.000000	97.277389 
2397.000000	97.291274 
2396.000000	97.266045 
2395.000000	97.226142 
2394.000000	97.201645 
2393.000000	97.203751 
2392.000000	97.217575 
2391.000000	97.221103 
2390.000000	97.207373 
2389.000000	97.183914 
2388.000000	97.156544 
2387.000000	97.124027 
2386.000000	97.088003 
2385.000000	97.057487 
2384.000000	97.038980 
2383.000000	97.029291 
2382.000000	97.024416 
2381.000000	97.030752 
2380.000000	97.059053 
2379.000000	97.107639 
2378.000000	97.157910 
2377.000000	97.185252 
2376.000000	97.171045 
2375.000000	97.108793 
2374.000000	97.014333 
2373.000000	96.929755 
2372.000000	96.899413 
2371.000000	96.938191 
2370.000000	97.036400 
2369.000000	97.185005 
2368.000000	97.360143 
2367.000000	97.482449 
2366.000000	97.450840 
2365.000000	97.254530 
2364.000000	97.019295 
2363.000000	96.892569 
2362.000000	96.897546 
2361.000000	96.960848 
2360.000000	97.028804 
2359.000000	97.090397 
2358.000000	97.148556 
2357.000000	97.199736 
2356.000000	97.248836 
2355.000000	97.295529 
2354.000000	97.315095 
2353.000000	97.291448 
2352.000000	97.230419 
2351.000000	97.166673 
2350.000000	97.137676 
2349.000000	97.151554 
2348.000000	97.188413 
2347.000000	97.198603 
2346.000000	97.169332 
2345.000000	97.128733 
2344.000000	97.094647 
2343.000000	97.047863 
2342.000000	96.969310 
2341.000000	96.908225 
2340.000000	96.927766 
2339.000000	97.039845 
2338.000000	97.182628 
2337.000000	97.288830 
2336.000000	97.339491 
2335.000000	97.360554 
2334.000000	97.359917 
2333.000000	97.328026 
2332.000000	97.257319 
2331.000000	97.175968 
2330.000000	97.113455 
2329.000000	97.075367 
2328.000000	97.071874 
2327.000000	97.096146 
2326.000000	97.122178 
2325.000000	97.097781 
2324.000000	97.011304 
2323.000000	96.921356 
2322.000000	96.892354 
2321.000000	96.936174 
2320.000000	97.001789 
2319.000000	97.049868 
2318.000000	97.068597 
2317.000000	97.074659 
2316.000000	97.086491 
2315.000000	97.111418 
2314.000000	97.125809 
2313.000000	97.094217 
2312.000000	97.018336 
2311.000000	96.953819 
2310.000000	96.956653 
2309.000000	97.018463 
2308.000000	97.081928 
2307.000000	97.106094 
2306.000000	97.098502 
2305.000000	97.085001 
2304.000000	97.075408 
2303.000000	97.067982 
2302.000000	97.063249 
2301.000000	97.062532 
2300.000000	97.058494 
2299.000000	97.042221 
2298.000000	97.018259 
2297.000000	97.001747 
2296.000000	97.004689 
2295.000000	97.025007 
2294.000000	97.056052 
2293.000000	97.092805 
2292.000000	97.133083 
2291.000000	97.170189 
2290.000000	97.195569 
2289.000000	97.206007 
2288.000000	97.207298 
2287.000000	97.204506 
2286.000000	97.191867 
2285.000000	97.158740 
2284.000000	97.108143 
2283.000000	97.064210 
2282.000000	97.055023 
2281.000000	97.089857 
2280.000000	97.153645 
2279.000000	97.222077 
2278.000000	97.274706 
2277.000000	97.297654 
2276.000000	97.282946 
2275.000000	97.235134 
2274.000000	97.176894 
2273.000000	97.138082 
2272.000000	97.132288 
2271.000000	97.145908 
2270.000000	97.157254 
2269.000000	97.163486 
2268.000000	97.177908 
2267.000000	97.199601 
2266.000000	97.202567 
2265.000000	97.169336 
2264.000000	97.125134 
2263.000000	97.115440 
2262.000000	97.149836 
2261.000000	97.184949 
2260.000000	97.171966 
2259.000000	97.111239 
2258.000000	97.051412 
2257.000000	97.041598 
2256.000000	97.087826 
2255.000000	97.152468 
2254.000000	97.190207 
2253.000000	97.187651 
2252.000000	97.169656 
2251.000000	97.167739 
2250.000000	97.188561 
2249.000000	97.217206 
2248.000000	97.242220 
2247.000000	97.262749 
2246.000000	97.276196 
2245.000000	97.277084 
2244.000000	97.269631 
2243.000000	97.264383 
2242.000000	97.259986 
2241.000000	97.246405 
2240.000000	97.231592 
2239.000000	97.244030 
2238.000000	97.293770 
2237.000000	97.343254 
2236.000000	97.335204 
2235.000000	97.249917 
2234.000000	97.129248 
2233.000000	97.046613 
2232.000000	97.050562 
2231.000000	97.125907 
2230.000000	97.206176 
2229.000000	97.234250 
2228.000000	97.212754 
2227.000000	97.183359 
2226.000000	97.163636 
2225.000000	97.131361 
2224.000000	97.074905 
2223.000000	97.028405 
2222.000000	97.037301 
2221.000000	97.106560 
2220.000000	97.199884 
2219.000000	97.274960 
2218.000000	97.303684 
2217.000000	97.276263 
2216.000000	97.209490 
2215.000000	97.142635 
2214.000000	97.107519 
2213.000000	97.106790 
2212.000000	97.128444 
2211.000000	97.165051 
2210.000000	97.204040 
2209.000000	97.220020 
2208.000000	97.203014 
2207.000000	97.180630 
2206.000000	97.184022 
2205.000000	97.198683 
2204.000000	97.177805 
2203.000000	97.105875 
2202.000000	97.025483 
2201.000000	96.996975 
2200.000000	97.046019 
2199.000000	97.148746 
2198.000000	97.249171 
2197.000000	97.291043 
2196.000000	97.255020 
2195.000000	97.172220 
2194.000000	97.092932 
2193.000000	97.044822 
2192.000000	97.030815 
2191.000000	97.055456 
2190.000000	97.124137 
2189.000000	97.212322 
2188.000000	97.266435 
2187.000000	97.255654 
2186.000000	97.208633 
2185.000000	97.181716 
2184.000000	97.195638 
2183.000000	97.216761 
2182.000000	97.201080 
2181.000000	97.148653 
2180.000000	97.110829 
2179.000000	97.144550 
2178.000000	97.257745 
2177.000000	97.392548 
2176.000000	97.464091 
2175.000000	97.427332 
2174.000000	97.315607 
2173.000000	97.217994 
2172.000000	97.211035 
2171.000000	97.296828 
2170.000000	97.397200 
2169.000000	97.415094 
2168.000000	97.317353 
2167.000000	97.158941 
2166.000000	97.024496 
2165.000000	96.952094 
2164.000000	96.916482 
2163.000000	96.878795 
2162.000000	96.840321 
2161.000000	96.845302 
2160.000000	96.931875 
2159.000000	97.078833 
2158.000000	97.211829 
2157.000000	97.274299 
2156.000000	97.278821 
2155.000000	97.274564 
2154.000000	97.279348 
2153.000000	97.261815 
2152.000000	97.189346 
2151.000000	97.077400 
2150.000000	96.980252 
2149.000000	96.936881 
2148.000000	96.935854 
2147.000000	96.940313 
2146.000000	96.940884 
2145.000000	96.967851 
2144.000000	97.042840 
2143.000000	97.132001 
2142.000000	97.172805 
2141.000000	97.153525 
2140.000000	97.138452 
2139.000000	97.190839 
2138.000000	97.288758 
2137.000000	97.346177 
2136.000000	97.313148 
2135.000000	97.224931 
2134.000000	97.148663 
2133.000000	97.113949 
2132.000000	97.106897 
2131.000000	97.104732 
2130.000000	97.096057 
2129.000000	97.081320 
2128.000000	97.071226 
2127.000000	97.079517 
2126.000000	97.107452 
2125.000000	97.140008 
2124.000000	97.163727 
2123.000000	97.180672 
2122.000000	97.196501 
2121.000000	97.202091 
2120.000000	97.178511 
2119.000000	97.119689 
2118.000000	97.044052 
2117.000000	96.983526 
2116.000000	96.962165 
2115.000000	96.981737 
2114.000000	97.023810 
2113.000000	97.066530 
2112.000000	97.100491 
2111.000000	97.126770 
2110.000000	97.144678 
2109.000000	97.152399 
2108.000000	97.158749 
2107.000000	97.179432 
2106.000000	97.214830 
2105.000000	97.241669 
2104.000000	97.234682 
2103.000000	97.190299 
2102.000000	97.124718 
2101.000000	97.057725 
2100.000000	97.004855 
2099.000000	96.976489 
2098.000000	96.974028 
2097.000000	96.988607 
2096.000000	97.010178 
2095.000000	97.036146 
2094.000000	97.066185 
2093.000000	97.092484 
2092.000000	97.101418 
2091.000000	97.084348 
2090.000000	97.045201 
2089.000000	96.999087 
2088.000000	96.962554 
2087.000000	96.942296 
2086.000000	96.934461 
2085.000000	96.937013 
2084.000000	96.957413 
2083.000000	96.999898 
2082.000000	97.048129 
2081.000000	97.072700 
2080.000000	97.059695 
2079.000000	97.023830 
2078.000000	96.992035 
2077.000000	96.980435 
2076.000000	96.985354 
2075.000000	96.988857 
2074.000000	96.973675 
2073.000000	96.942309 
2072.000000	96.919292 
2071.000000	96.923760 
2070.000000	96.944189 
2069.000000	96.953426 
2068.000000	96.945478 
2067.000000	96.941315 
2066.000000	96.959901 
2065.000000	96.999546 
2064.000000	97.044596 
2063.000000	97.071063 
2062.000000	97.048693 
2061.000000	96.966569 
2060.000000	96.862972 
2059.000000	96.801898 
2058.000000	96.809386 
2057.000000	96.853597 
2056.000000	96.894268 
2055.000000	96.925718 
2054.000000	96.955421 
2053.000000	96.967289 
2052.000000	96.935401 
2051.000000	96.863736 
2050.000000	96.791750 
2049.000000	96.760259 
2048.000000	96.776940 
2047.000000	96.814264 
2046.000000	96.838979 
2045.000000	96.847392 
2044.000000	96.868320 
2043.000000	96.917280 
2042.000000	96.956087 
2041.000000	96.930441 
2040.000000	96.851651 
2039.000000	96.800722 
2038.000000	96.836295 
2037.000000	96.930701 
2036.000000	97.012356 
2035.000000	97.041173 
2034.000000	97.020036 
2033.000000	96.967961 
2032.000000	96.917099 
2031.000000	96.908687 
2030.000000	96.954764 
2029.000000	97.017180 
2028.000000	97.051034 
2027.000000	97.055301 
2026.000000	97.058727 
2025.000000	97.076010 
2024.000000	97.101072 
2023.000000	97.126148 
2022.000000	97.146457 
2021.000000	97.158824 
2020.000000	97.170298 
2019.000000	97.189867 
2018.000000	97.198203 
2017.000000	97.150331 
2016.000000	97.033505 
2015.000000	96.904527 
2014.000000	96.846763 
2013.000000	96.896229 
2012.000000	97.012648 
2011.000000	97.111342 
2010.000000	97.120314 
2009.000000	97.029689 
2008.000000	96.903590 
2007.000000	96.832154 
2006.000000	96.861481 
2005.000000	96.967481 
2004.000000	97.082199 
2003.000000	97.130035 
2002.000000	97.063408 
2001.000000	96.906075 
2000.000000	96.757364 
1999.000000	96.710822 
1998.000000	96.762824 
1997.000000	96.831108 
1996.000000	96.862021 
1995.000000	96.878572 
1994.000000	96.916843 
1993.000000	96.966084 
1992.000000	96.996171 
1991.000000	97.009106 
1990.000000	97.030647 
1989.000000	97.073294 
1988.000000	97.129188 
1987.000000	97.177097 
1986.000000	97.185163 
1985.000000	97.134803 
1984.000000	97.052636 
1983.000000	96.988478 
1982.000000	96.956848 
1981.000000	96.934342 
1980.000000	96.920464 
1979.000000	96.949652 
1978.000000	97.019499 
1977.000000	97.067998 
1976.000000	97.058948 
1975.000000	97.025895 
1974.000000	96.998115 
1973.000000	96.956797 
1972.000000	96.896339 
1971.000000	96.856855 
1970.000000	96.855883 
1969.000000	96.851386 
1968.000000	96.819698 
1967.000000	96.812893 
1966.000000	96.879594 
1965.000000	96.981699 
1964.000000	97.051510 
1963.000000	97.081423 
1962.000000	97.100739 
1961.000000	97.103998 
1960.000000	97.061853 
1959.000000	96.983732 
1958.000000	96.919178 
1957.000000	96.907335 
1956.000000	96.954471 
1955.000000	97.040308 
1954.000000	97.118396 
1953.000000	97.141312 
1952.000000	97.117385 
1951.000000	97.114205 
1950.000000	97.176774 
1949.000000	97.266570 
1948.000000	97.315588 
1947.000000	97.313186 
1946.000000	97.297702 
1945.000000	97.288573 
1944.000000	97.274293 
1943.000000	97.252370 
1942.000000	97.230514 
1941.000000	97.195010 
1940.000000	97.127755 
1939.000000	97.046972 
1938.000000	96.995145 
1937.000000	96.992978 
1936.000000	97.026889 
1935.000000	97.074999 
1934.000000	97.117899 
1933.000000	97.133791 
1932.000000	97.113824 
1931.000000	97.080020 
1930.000000	97.063808 
1929.000000	97.063410 
1928.000000	97.052878 
1927.000000	97.025936 
1926.000000	97.005377 
1925.000000	97.009239 
1924.000000	97.028362 
1923.000000	97.047070 
1922.000000	97.061853 
1921.000000	97.075461 
1920.000000	97.089079 
1919.000000	97.101734 
1918.000000	97.109779 
1917.000000	97.106621 
1916.000000	97.094932 
1915.000000	97.094217 
1914.000000	97.117180 
1913.000000	97.149289 
1912.000000	97.164574 
1911.000000	97.155004 
1910.000000	97.130401 
1909.000000	97.095457 
1908.000000	97.053220 
1907.000000	97.019130 
1906.000000	97.009732 
1905.000000	97.019742 
1904.000000	97.027119 
1903.000000	97.027111 
1902.000000	97.035946 
1901.000000	97.059156 
1900.000000	97.083870 
1899.000000	97.100928 
1898.000000	97.112883 
1897.000000	97.119427 
1896.000000	97.113325 
1895.000000	97.100585 
1894.000000	97.104242 
1893.000000	97.138380 
1892.000000	97.191164 
1891.000000	97.235711 
1890.000000	97.250213 
1889.000000	97.230399 
1888.000000	97.191333 
1887.000000	97.157393 
1886.000000	97.140762 
1885.000000	97.131720 
1884.000000	97.116895 
1883.000000	97.100291 
1882.000000	97.093558 
1881.000000	97.092477 
1880.000000	97.085653 
1879.000000	97.078732 
1878.000000	97.088628 
1877.000000	97.117327 
1876.000000	97.144315 
1875.000000	97.148143 
1874.000000	97.128333 
1873.000000	97.103568 
1872.000000	97.095646 
1871.000000	97.113199 
1870.000000	97.141891 
1869.000000	97.154290 
1868.000000	97.139957 
1867.000000	97.121073 
1866.000000	97.125583 
1865.000000	97.151686 
1864.000000	97.172781 
1863.000000	97.170578 
1862.000000	97.149479 
1861.000000	97.122380 
1860.000000	97.099098 
1859.000000	97.088899 
1858.000000	97.097420 
1857.000000	97.116709 
1856.000000	97.130814 
1855.000000	97.131794 
1854.000000	97.123877 
1853.000000	97.111532 
1852.000000	97.102178 
1851.000000	97.110125 
1850.000000	97.137933 
1849.000000	97.169171 
1848.000000	97.188131 
1847.000000	97.200644 
1846.000000	97.218832 
1845.000000	97.236225 
1844.000000	97.237306 
1843.000000	97.222560 
1842.000000	97.203179 
1841.000000	97.180728 
1840.000000	97.153014 
1839.000000	97.126248 
1838.000000	97.109951 
1837.000000	97.101850 
1836.000000	97.089985 
1835.000000	97.074051 
1834.000000	97.065434 
1833.000000	97.068695 
1832.000000	97.078633 
1831.000000	97.087010 
1830.000000	97.087116 
1829.000000	97.074945 
1828.000000	97.054449 
1827.000000	97.038187 
1826.000000	97.026665 
1825.000000	97.010792 
1824.000000	96.994111 
1823.000000	96.990595 
1822.000000	97.000917 
1821.000000	97.005830 
1820.000000	96.994176 
1819.000000	96.977055 
1818.000000	96.965694 
1817.000000	96.951144 
1816.000000	96.919219 
1815.000000	96.878432 
1814.000000	96.845749 
1813.000000	96.822594 
1812.000000	96.802670 
1811.000000	96.788749 
1810.000000	96.788534 
1809.000000	96.791836 
1808.000000	96.777083 
1807.000000	96.742132 
1806.000000	96.706248 
1805.000000	96.684209 
1804.000000	96.671718 
1803.000000	96.660122 
1802.000000	96.643582 
1801.000000	96.616681 
1800.000000	96.578884 
1799.000000	96.537185 
1798.000000	96.499913 
1797.000000	96.463917 
1796.000000	96.424822 
1795.000000	96.393547 
1794.000000	96.378622 
1793.000000	96.364192 
1792.000000	96.330144 
1791.000000	96.278084 
1790.000000	96.221713 
1789.000000	96.165752 
1788.000000	96.108577 
1787.000000	96.051797 
1786.000000	95.995051 
1785.000000	95.929171 
1784.000000	95.848294 
1783.000000	95.767191 
1782.000000	95.692397 
1781.000000	95.604717 
1780.000000	95.496123 
1779.000000	95.387677 
1778.000000	95.299538 
1777.000000	95.216373 
1776.000000	95.116954 
1775.000000	95.008496 
1774.000000	94.894337 
1773.000000	94.745994 
1772.000000	94.565147 
1771.000000	94.398705 
1770.000000	94.249640 
1769.000000	94.056571 
1768.000000	93.773953 
1767.000000	93.442491 
1766.000000	93.129929 
1765.000000	92.833414 
1764.000000	92.490315 
1763.000000	92.051263 
1762.000000	91.522095 
1761.000000	90.941747 
1760.000000	90.328596 
1759.000000	89.648701 
1758.000000	88.806287 
1757.000000	87.703710 
1756.000000	86.384950 
1755.000000	84.979781 
1754.000000	83.460170 
1753.000000	81.582740 
1752.000000	79.113555 
1751.000000	76.118775 
1750.000000	72.889241 
1749.000000	69.605543 
1748.000000	66.371344 
1747.000000	63.370367 
1746.000000	60.729909 
1745.000000	58.467022 
1744.000000	56.664471 
1743.000000	55.510063 
1742.000000	55.134971 
1741.000000	55.588750 
1740.000000	56.889884 
1739.000000	58.840465 
1738.000000	61.037299 
1737.000000	63.330737 
1736.000000	66.008685 
1735.000000	69.457983 
1734.000000	73.308239 
1733.000000	76.560108 
1732.000000	78.956164 
1731.000000	80.902981 
1730.000000	82.643518 
1729.000000	84.191733 
1728.000000	85.509224 
1727.000000	86.617440 
1726.000000	87.565262 
1725.000000	88.406580 
1724.000000	89.171910 
1723.000000	89.835703 
1722.000000	90.370615 
1721.000000	90.807446 
1720.000000	91.209693 
1719.000000	91.601198 
1718.000000	91.966877 
1717.000000	92.311711 
1716.000000	92.645787 
1715.000000	92.940674 
1714.000000	93.161800 
1713.000000	93.320087 
1712.000000	93.451983 
1711.000000	93.570668 
1710.000000	93.672332 
1709.000000	93.770750 
1708.000000	93.888118 
1707.000000	94.007227 
1706.000000	94.086316 
1705.000000	94.131908 
1704.000000	94.187987 
1703.000000	94.282017 
1702.000000	94.401754 
1701.000000	94.497082 
1700.000000	94.545543 
1699.000000	94.575630 
1698.000000	94.625179 
1697.000000	94.737428 
1696.000000	94.916568 
1695.000000	95.092826 
1694.000000	95.217444 
1693.000000	95.311668 
1692.000000	95.401651 
1691.000000	95.490376 
1690.000000	95.566581 
1689.000000	95.617711 
1688.000000	95.645884 
1687.000000	95.669033 
1686.000000	95.702033 
1685.000000	95.754464 
1684.000000	95.851495 
1683.000000	95.962253 
1682.000000	96.024494 
1681.000000	96.044990 
1680.000000	96.055630 
1679.000000	96.078573 
1678.000000	96.118659 
1677.000000	96.167597 
1676.000000	96.209633 
1675.000000	96.229799 
1674.000000	96.225073 
1673.000000	96.210790 
1672.000000	96.205465 
1671.000000	96.208956 
1670.000000	96.220316 
1669.000000	96.238133 
1668.000000	96.253242 
1667.000000	96.260456 
1666.000000	96.261778 
1665.000000	96.261785 
1664.000000	96.254752 
1663.000000	96.228982 
1662.000000	96.179895 
1661.000000	96.108206 
1660.000000	96.029620 
1659.000000	95.960908 
1658.000000	95.913120 
1657.000000	95.886076 
1656.000000	95.886103 
1655.000000	95.903282 
1654.000000	95.905021 
1653.000000	95.902321 
1652.000000	95.905371 
1651.000000	95.926823 
1650.000000	95.972565 
1649.000000	96.011458 
1648.000000	96.048685 
1647.000000	96.115293 
1646.000000	96.190844 
1645.000000	96.238644 
1644.000000	96.274780 
1643.000000	96.323583 
1642.000000	96.386101 
1641.000000	96.454255 
1640.000000	96.520127 
1639.000000	96.572655 
1638.000000	96.609425 
1637.000000	96.643855 
1636.000000	96.701457 
1635.000000	96.761756 
1634.000000	96.776216 
1633.000000	96.763637 
1632.000000	96.760489 
1631.000000	96.775738 
1630.000000	96.796532 
1629.000000	96.806585 
1628.000000	96.807983 
1627.000000	96.814050 
1626.000000	96.829711 
1625.000000	96.852098 
1624.000000	96.878976 
1623.000000	96.905022 
1622.000000	96.912470 
1621.000000	96.885965 
1620.000000	96.833137 
1619.000000	96.770669 
1618.000000	96.718353 
1617.000000	96.703334 
1616.000000	96.739548 
1615.000000	96.802519 
1614.000000	96.854489 
1613.000000	96.879002 
1612.000000	96.882693 
1611.000000	96.883375 
1610.000000	96.887713 
1609.000000	96.887357 
1608.000000	96.876587 
1607.000000	96.863037 
1606.000000	96.857231 
1605.000000	96.862300 
1604.000000	96.878351 
1603.000000	96.896633 
1602.000000	96.902591 
1601.000000	96.893801 
1600.000000	96.884276 
1599.000000	96.885046 
1598.000000	96.890240 
1597.000000	96.891484 
1596.000000	96.892873 
1595.000000	96.902605 
1594.000000	96.918892 
1593.000000	96.934152 
1592.000000	96.947737 
1591.000000	96.964728 
1590.000000	96.987959 
1589.000000	97.017801 
1588.000000	97.056173 
1587.000000	97.102741 
1586.000000	97.154371 
1585.000000	97.207811 
1584.000000	97.266260 
1583.000000	97.335083 
1582.000000	97.407718 
1581.000000	97.472177 
1580.000000	97.522682 
1579.000000	97.557922 
1578.000000	97.573119 
1577.000000	97.571731 
1576.000000	97.569879 
1575.000000	97.572239 
1574.000000	97.565500 
1573.000000	97.543966 
1572.000000	97.516420 
1571.000000	97.483044 
1570.000000	97.433890 
1569.000000	97.365691 
1568.000000	97.293157 
1567.000000	97.236867 
1566.000000	97.199340 
1565.000000	97.166351 
1564.000000	97.135455 
1563.000000	97.115212 
1562.000000	97.114622 
1561.000000	97.131702 
1560.000000	97.113732 
1559.000000	97.128965 
1558.000000	97.207193 
1557.000000	97.235368 
1556.000000	97.235275 
1555.000000	97.237852 
1554.000000	97.231992 
1553.000000	97.227142 
1552.000000	97.253290 
1551.000000	97.316600 
1550.000000	97.385105 
1549.000000	97.434978 
1548.000000	97.477355 
1547.000000	97.539518 
1546.000000	97.618536 
1545.000000	97.697014 
1544.000000	97.777822 
1543.000000	97.856795 
1542.000000	97.893185 
1541.000000	97.861246 
1540.000000	97.806585 
1539.000000	97.753105 
1538.000000	97.678931 
1537.000000	97.597127 
1536.000000	97.512506 
1535.000000	97.413435 
1534.000000	97.294839 
1533.000000	97.182605 
1532.000000	97.100071 
1531.000000	97.036532 
1530.000000	96.981368 
1529.000000	96.933139 
1528.000000	96.896053 
1527.000000	96.868136 
1526.000000	96.830219 
1525.000000	96.773461 
1524.000000	96.720301 
1523.000000	96.689441 
1522.000000	96.675320 
1521.000000	96.666395 
1520.000000	96.661097 
1519.000000	96.661912 
1518.000000	96.653197 
1517.000000	96.626509 
1516.000000	96.598238 
1515.000000	96.579200 
1514.000000	96.564877 
1513.000000	96.552098 
1512.000000	96.546220 
1511.000000	96.547832 
1510.000000	96.544035 
1509.000000	96.520319 
1508.000000	96.481687 
1507.000000	96.469945 
1506.000000	96.452072 
1505.000000	96.374570 
1504.000000	96.303775 
1503.000000	96.269438 
1502.000000	96.241873 
1501.000000	96.205468 
1500.000000	96.177167 
1499.000000	96.175898 
1498.000000	96.182207 
1497.000000	96.169285 
1496.000000	96.139776 
1495.000000	96.106437 
1494.000000	96.068044 
1493.000000	96.026437 
1492.000000	95.997598 
1491.000000	95.981971 
1490.000000	95.957065 
1489.000000	95.911963 
1488.000000	95.856286 
1487.000000	95.789219 
1486.000000	95.700860 
1485.000000	95.595871 
1484.000000	95.499881 
1483.000000	95.420249 
1482.000000	95.324190 
1481.000000	95.196633 
1480.000000	95.068249 
1479.000000	94.958054 
1478.000000	94.820679 
1477.000000	94.601461 
1476.000000	94.297977 
1475.000000	93.899589 
1474.000000	93.273600 
1473.000000	92.251926 
1472.000000	90.899723 
1471.000000	89.461534 
1470.000000	88.085644 
1469.000000	86.837655 
1468.000000	85.806884 
1467.000000	85.058655 
1466.000000	84.567907 
1465.000000	84.257915 
1464.000000	84.081736 
1463.000000	84.001085 
1462.000000	83.964892 
1461.000000	83.942062 
1460.000000	83.933644 
1459.000000	83.949108 
1458.000000	83.996502 
1457.000000	84.131212 
1456.000000	84.397147 
1455.000000	84.749784 
1454.000000	85.121765 
1453.000000	85.477591 
1452.000000	85.806049 
1451.000000	86.087410 
1450.000000	86.288923 
1449.000000	86.398708 
1448.000000	86.429421 
1447.000000	86.389309 
1446.000000	86.272218 
1445.000000	86.084363 
1444.000000	85.847310 
1443.000000	85.543982 
1442.000000	85.119743 
1441.000000	84.562063 
1440.000000	83.920313 
1439.000000	83.216198 
1438.000000	82.412577 
1437.000000	81.619084 
1436.000000	81.205459 
1435.000000	81.405435 
1434.000000	82.119159 
1433.000000	83.199849 
1432.000000	84.548380 
1431.000000	86.018809 
1430.000000	87.417679 
1429.000000	88.597340 
1428.000000	89.503052 
1427.000000	90.167029 
1426.000000	90.663288 
1425.000000	91.035164 
1424.000000	91.288951 
1423.000000	91.441679 
1422.000000	91.549497 
1421.000000	91.669873 
1420.000000	91.822883 
1419.000000	92.008814 
1418.000000	92.229823 
1417.000000	92.481987 
1416.000000	92.753449 
1415.000000	93.031828 
1414.000000	93.307889 
1413.000000	93.572423 
1412.000000	93.807280 
1411.000000	93.991027 
1410.000000	94.117165 
1409.000000	94.196138 
1408.000000	94.233195 
1407.000000	94.229137 
1406.000000	94.195585 
1405.000000	94.144914 
1404.000000	94.080648 
1403.000000	94.008654 
1402.000000	93.952032 
1401.000000	93.930828 
1400.000000	93.941788 
1399.000000	93.972149 
1398.000000	94.017535 
1397.000000	94.080198 
1396.000000	94.154832 
1395.000000	94.230281 
1394.000000	94.295172 
1393.000000	94.340708 
1392.000000	94.366770 
1391.000000	94.378183 
1390.000000	94.378576 
1389.000000	94.358649 
1388.000000	94.291440 
1387.000000	94.157642 
1386.000000	93.963700 
1385.000000	93.711800 
1384.000000	93.379618 
1383.000000	92.947183 
1382.000000	92.433503 
1381.000000	91.891327 
1380.000000	91.379862 
1379.000000	90.963773 
1378.000000	90.698586 
1377.000000	90.588184 
1376.000000	90.576948 
1375.000000	90.595599 
1374.000000	90.599519 
1373.000000	90.566328 
1372.000000	90.484667 
1371.000000	90.356774 
1370.000000	90.193535 
1369.000000	90.003776 
1368.000000	89.800574 
1367.000000	89.606627 
1366.000000	89.444631 
1365.000000	89.319095 
1364.000000	89.218757 
1363.000000	89.144077 
1362.000000	89.113557 
1361.000000	89.132703 
1360.000000	89.182987 
1359.000000	89.246031 
1358.000000	89.319343 
1357.000000	89.408959 
1356.000000	89.516199 
1355.000000	89.635389 
1354.000000	89.759990 
1353.000000	89.886373 
1352.000000	90.011888 
1351.000000	90.140085 
1350.000000	90.283773 
1349.000000	90.450462 
1348.000000	90.632604 
1347.000000	90.813561 
1346.000000	90.984250 
1345.000000	91.146022 
1344.000000	91.301473 
1343.000000	91.449320 
1342.000000	91.588036 
1341.000000	91.717159 
1340.000000	91.834186 
1339.000000	91.933254 
1338.000000	92.010607 
1337.000000	92.070017 
1336.000000	92.116547 
1335.000000	92.148067 
1334.000000	92.158170 
1333.000000	92.143693 
1332.000000	92.105840 
1331.000000	92.046919 
1330.000000	91.968029 
1329.000000	91.869128 
1328.000000	91.750356 
1327.000000	91.614003 
1326.000000	91.465362 
1325.000000	91.312341 
1324.000000	91.167370 
1323.000000	91.044951 
1322.000000	90.954609 
1321.000000	90.896449 
1320.000000	90.864483 
1319.000000	90.851359 
1318.000000	90.849833 
1317.000000	90.854842 
1316.000000	90.866810 
1315.000000	90.889616 
1314.000000	90.922482 
1313.000000	90.956131 
1312.000000	90.979008 
1311.000000	90.986141 
1310.000000	90.979400 
1309.000000	90.961448 
1308.000000	90.932958 
1307.000000	90.895544 
1306.000000	90.854023 
1305.000000	90.814445 
1304.000000	90.782420 
1303.000000	90.761180 
1302.000000	90.750194 
1301.000000	90.746174 
1300.000000	90.747293 
1299.000000	90.754634 
1298.000000	90.768003 
1297.000000	90.781822 
1296.000000	90.787931 
1295.000000	90.782847 
1294.000000	90.770262 
1293.000000	90.756253 
1292.000000	90.742283 
1291.000000	90.721625 
1290.000000	90.681127 
1289.000000	90.607106 
1288.000000	90.491583 
1287.000000	90.334803 
1286.000000	90.143926 
1285.000000	89.932200 
1284.000000	89.719181 
1283.000000	89.525344 
1282.000000	89.361015 
1281.000000	89.222101 
1280.000000	89.099493 
1279.000000	88.989981 
1278.000000	88.895529 
1277.000000	88.815493 
1276.000000	88.742509 
1275.000000	88.664638 
1274.000000	88.570551 
1273.000000	88.456400 
1272.000000	88.329640 
1271.000000	88.202983 
1270.000000	88.081983 
1269.000000	87.960145 
1268.000000	87.826101 
1267.000000	87.671918 
1266.000000	87.496221 
1265.000000	87.306139 
1264.000000	87.115494 
1263.000000	86.932824 
1262.000000	86.750109 
1261.000000	86.551493 
1260.000000	86.334094 
1259.000000	86.110060 
1258.000000	85.886550 
1257.000000	85.657546 
1256.000000	85.419073 
1255.000000	85.176724 
1254.000000	84.928482 
1253.000000	84.654373 
1252.000000	84.339524 
1251.000000	84.002895 
1250.000000	83.690377 
1249.000000	83.440940 
1248.000000	83.266408 
1247.000000	83.157055 
1246.000000	83.095749 
1245.000000	83.069660 
1244.000000	83.076401 
1243.000000	83.120246 
1242.000000	83.202110 
1241.000000	83.316360 
1240.000000	83.456209 
1239.000000	83.615885 
1238.000000	83.787531 
1237.000000	83.962756 
1236.000000	84.138058 
1235.000000	84.312908 
1234.000000	84.482494 
1233.000000	84.638472 
1232.000000	84.776125 
1231.000000	84.892886 
1230.000000	84.979899 
1229.000000	85.025589 
1228.000000	85.031876 
1227.000000	85.017994 
1226.000000	85.000651 
1225.000000	84.975515 
1224.000000	84.925317 
1223.000000	84.841823 
1222.000000	84.732095 
1221.000000	84.606235 
1220.000000	84.467745 
1219.000000	84.315361 
1218.000000	84.146435 
1217.000000	83.956955 
1216.000000	83.743552 
1215.000000	83.507480 
1214.000000	83.253641 
1213.000000	82.985090 
1212.000000	82.700679 
1211.000000	82.397691 
1210.000000	82.074801 
1209.000000	81.732025 
1208.000000	81.367117 
1207.000000	80.970722 
1206.000000	80.528769 
1205.000000	80.036937 
1204.000000	79.513146 
1203.000000	78.988660 
1202.000000	78.484997 
1201.000000	78.006430 
1200.000000	77.555831 
1199.000000	77.148368 
1198.000000	76.808149 
1197.000000	76.562143 
1196.000000	76.439517 
1195.000000	76.465465 
1194.000000	76.650229 
1193.000000	76.986754 
1192.000000	77.451868 
1191.000000	78.000179 
1190.000000	78.567120 
1189.000000	79.093873 
1188.000000	79.546071 
1187.000000	79.900972 
1186.000000	80.127502 
1185.000000	80.192711 
1184.000000	80.082828 
1183.000000	79.806849 
1182.000000	79.382910 
1181.000000	78.831773 
1180.000000	78.181037 
1179.000000	77.461479 
1178.000000	76.696510 
1177.000000	75.907778 
1176.000000	75.132703 
1175.000000	74.419762 
1174.000000	73.800976 
1173.000000	73.285137 
1172.000000	72.882506 
1171.000000	72.616621 
1170.000000	72.504989 
1169.000000	72.546027 
1168.000000	72.730668 
1167.000000	73.049872 
1166.000000	73.487429 
1165.000000	74.022531 
1164.000000	74.641715 
1163.000000	75.332653 
1162.000000	76.066963 
1161.000000	76.807288 
1160.000000	77.534043 
1159.000000	78.251562 
1158.000000	78.966541 
1157.000000	79.672993 
1156.000000	80.359775 
1155.000000	81.020327 
1154.000000	81.650427 
1153.000000	82.244258 
1152.000000	82.797069 
1151.000000	83.307639 
1150.000000	83.775881 
1149.000000	84.201405 
1148.000000	84.586781 
1147.000000	84.940634 
1146.000000	85.275947 
1145.000000	85.605569 
1144.000000	85.938614 
1143.000000	86.278001 
1142.000000	86.619507 
1141.000000	86.955162 
1140.000000	87.280298 
1139.000000	87.597241 
1138.000000	87.909785 
1137.000000	88.213737 
1136.000000	88.497094 
1135.000000	88.752665 
1134.000000	88.985770 
1133.000000	89.202223 
1132.000000	89.391221 
1131.000000	89.529123 
1130.000000	89.600780 
1129.000000	89.609232 
1128.000000	89.564870 
1127.000000	89.476100 
1126.000000	89.352712 
1125.000000	89.207273 
1124.000000	89.048712 
1123.000000	88.883938 
1122.000000	88.730585 
1121.000000	88.617998 
1120.000000	88.566512 
1119.000000	88.571408 
1118.000000	88.616097 
1117.000000	88.695911 
1116.000000	88.816651 
1115.000000	88.972011 
1114.000000	89.137275 
1113.000000	89.289122 
1112.000000	89.420978 
1111.000000	89.535820 
1110.000000	89.634445 
1109.000000	89.715625 
1108.000000	89.778831 
1107.000000	89.820174 
1106.000000	89.832338 
1105.000000	89.814842 
1104.000000	89.780724 
1103.000000	89.748339 
1102.000000	89.728586 
1101.000000	89.722727 
1100.000000	89.728010 
1099.000000	89.740186 
1098.000000	89.754245 
1097.000000	89.768029 
1096.000000	89.785433 
1095.000000	89.813230 
1094.000000	89.855756 
1093.000000	89.914269 
1092.000000	89.988869 
1091.000000	90.078604 
1090.000000	90.182986 
1089.000000	90.306598 
1088.000000	90.458222 
1087.000000	90.639584 
1086.000000	90.836236 
1085.000000	91.025780 
1084.000000	91.197664 
1083.000000	91.362755 
1082.000000	91.540987 
1081.000000	91.739532 
1080.000000	91.945000 
1079.000000	92.137741 
1078.000000	92.310583 
1077.000000	92.468674 
1076.000000	92.612431 
1075.000000	92.729642 
1074.000000	92.808828 
1073.000000	92.853834 
1072.000000	92.879490 
1071.000000	92.897191 
1070.000000	92.910198 
1069.000000	92.920012 
1068.000000	92.930218 
1067.000000	92.941876 
1066.000000	92.948651 
1065.000000	92.940844 
1064.000000	92.916971 
1063.000000	92.891183 
1062.000000	92.884487 
1061.000000	92.904150 
1060.000000	92.934407 
1059.000000	92.953422 
1058.000000	92.958753 
1057.000000	92.969468 
1056.000000	93.003200 
1055.000000	93.058845 
1054.000000	93.122508 
1053.000000	93.180492 
1052.000000	93.221066 
1051.000000	93.233766 
1050.000000	93.219040 
1049.000000	93.193454 
1048.000000	93.175022 
1047.000000	93.167503 
1046.000000	93.164364 
1045.000000	93.158914 
1044.000000	93.142554 
1043.000000	93.102170 
1042.000000	93.032249 
1041.000000	92.947579 
1040.000000	92.873176 
1039.000000	92.819912 
1038.000000	92.776568 
1037.000000	92.725372 
1036.000000	92.656656 
1035.000000	92.567613 
1034.000000	92.457451 
1033.000000	92.329899 
1032.000000	92.195073 
1031.000000	92.063418 
1030.000000	91.939262 
1029.000000	91.820517 
1028.000000	91.698872 
1027.000000	91.558646 
1026.000000	91.384886 
1025.000000	91.180636 
1024.000000	90.971744 
1023.000000	90.787061 
1022.000000	90.635957 
1021.000000	90.511191 
1020.000000	90.409024 
1019.000000	90.335064 
1018.000000	90.290497 
1017.000000	90.264572 
1016.000000	90.247088 
1015.000000	90.243347 
1014.000000	90.271808 
1013.000000	90.347802 
1012.000000	90.470106 
1011.000000	90.620440 
1010.000000	90.774984 
1009.000000	90.918640 
1008.000000	91.050222 
1007.000000	91.176708 
1006.000000	91.305776 
1005.000000	91.442298 
1004.000000	91.585442 
1003.000000	91.725848 
1002.000000	91.849682 
1001.000000	91.948681 
1000.000000	92.023391 
999.000000	 92.075442 
998.000000	 92.102678 
997.000000	 92.106347 
996.000000	 92.097892 
995.000000	 92.091458 
994.000000	 92.091732 
993.000000	 92.095764 
992.000000	 92.105192 
991.000000	 92.128556 
990.000000	 92.170630 
989.000000	 92.227044 
988.000000	 92.292439 
987.000000	 92.367701 
986.000000	 92.454910 
985.000000	 92.549886 
984.000000	 92.645249 
983.000000	 92.738810 
982.000000	 92.833914 
981.000000	 92.931395 
980.000000	 93.025161 
979.000000	 93.107813 
978.000000	 93.179328 
977.000000	 93.248590 
976.000000	 93.326319 
975.000000	 93.416918 
974.000000	 93.516732 
973.000000	 93.618811 
972.000000	 93.717940 
971.000000	 93.811681 
970.000000	 93.899393 
969.000000	 93.982081 
968.000000	 94.061770 
967.000000	 94.138882 
966.000000	 94.211019 
965.000000	 94.276626 
964.000000	 94.339230 
963.000000	 94.404706 
962.000000	 94.473821 
961.000000	 94.541107 
960.000000	 94.602288 
959.000000	 94.658506 
958.000000	 94.710608 
957.000000	 94.754264 
956.000000	 94.786556 
955.000000	 94.814283 
954.000000	 94.848101 
953.000000	 94.888789 
952.000000	 94.926755 
951.000000	 94.956060 
950.000000	 94.981193 
949.000000	 95.007407 
948.000000	 95.032397 
947.000000	 95.052281 
946.000000	 95.068456 
945.000000	 95.081647 
944.000000	 95.085437 
943.000000	 95.075169 
942.000000	 95.060516 
941.000000	 95.059800 
940.000000	 95.081023 
939.000000	 95.114197 
938.000000	 95.142187 
937.000000	 95.154142 
936.000000	 95.149353 
935.000000	 95.134974 
934.000000	 95.121397 
933.000000	 95.114242 
932.000000	 95.108718 
931.000000	 95.095192 
930.000000	 95.071129 
929.000000	 95.044078 
928.000000	 95.022835 
927.000000	 95.009154 
926.000000	 94.997019 
925.000000	 94.975228 
924.000000	 94.931440 
923.000000	 94.860417 
922.000000	 94.770716 
921.000000	 94.679050 
920.000000	 94.596385 
919.000000	 94.522211 
918.000000	 94.451525 
917.000000	 94.382415 
916.000000	 94.316587 
915.000000	 94.258877 
914.000000	 94.218856 
913.000000	 94.207023 
912.000000	 94.224637 
911.000000	 94.260526 
910.000000	 94.302484 
909.000000	 94.349536 
908.000000	 94.408211 
907.000000	 94.478195 
906.000000	 94.546636 
905.000000	 94.597498 
904.000000	 94.624197 
903.000000	 94.632804 
902.000000	 94.633447 
901.000000	 94.627193 
900.000000	 94.602227 
899.000000	 94.547671 
898.000000	 94.472214 
897.000000	 94.402142 
896.000000	 94.355019 
895.000000	 94.318847 
894.000000	 94.263497 
893.000000	 94.171242 
892.000000	 94.049413 
891.000000	 93.913883 
890.000000	 93.770102 
889.000000	 93.617262 
888.000000	 93.465436 
887.000000	 93.336064 
886.000000	 93.240485 
885.000000	 93.165036 
884.000000	 93.086024 
883.000000	 92.998551 
882.000000	 92.923139 
881.000000	 92.881657 
880.000000	 92.873616 
879.000000	 92.881769 
878.000000	 92.895849 
877.000000	 92.920567 
876.000000	 92.959609 
875.000000	 93.003331 
874.000000	 93.039913 
873.000000	 93.070912 
872.000000	 93.104552 
871.000000	 93.135959 
870.000000	 93.145834 
869.000000	 93.122807 
868.000000	 93.080371 
867.000000	 93.046447 
866.000000	 93.038183 
865.000000	 93.050492 
864.000000	 93.067972 
863.000000	 93.082458 
862.000000	 93.094786 
861.000000	 93.101268 
860.000000	 93.086196 
859.000000	 93.035476 
858.000000	 92.957827 
857.000000	 92.884495 
856.000000	 92.842393 
855.000000	 92.830790 
854.000000	 92.829035 
853.000000	 92.823337 
852.000000	 92.817168 
851.000000	 92.814965 
850.000000	 92.806123 
849.000000	 92.773070 
848.000000	 92.712229 
847.000000	 92.641371 
846.000000	 92.586522 
845.000000	 92.564380 
844.000000	 92.575430 
843.000000	 92.609174 
842.000000	 92.655213 
841.000000	 92.711842 
840.000000	 92.785108 
839.000000	 92.879777 
838.000000	 92.992546 
837.000000	 93.113315 
836.000000	 93.229076 
835.000000	 93.325806 
834.000000	 93.393025 
833.000000	 93.433269 
832.000000	 93.466864 
831.000000	 93.522584 
830.000000	 93.619259 
829.000000	 93.753122 
828.000000	 93.899619 
827.000000	 94.027773 
826.000000	 94.120647 
825.000000	 94.188106 
824.000000	 94.255208 
823.000000	 94.333406 
822.000000	 94.408632 
821.000000	 94.462106 
820.000000	 94.494566 
819.000000	 94.523702 
818.000000	 94.563419 
817.000000	 94.610650 
816.000000	 94.649414 
815.000000	 94.664494 
814.000000	 94.655463 
813.000000	 94.643189 
812.000000	 94.659812 
811.000000	 94.722861 
810.000000	 94.814471 
809.000000	 94.891226 
808.000000	 94.920655 
807.000000	 94.908435 
806.000000	 94.888853 
805.000000	 94.890456 
804.000000	 94.912383 
803.000000	 94.930513 
802.000000	 94.922115 
801.000000	 94.885579 
800.000000	 94.840746 
799.000000	 94.812418 
798.000000	 94.811465 
797.000000	 94.828808 
796.000000	 94.845752 
795.000000	 94.848815 
794.000000	 94.835203 
793.000000	 94.807388 
792.000000	 94.766861 
791.000000	 94.715637 
790.000000	 94.661968 
789.000000	 94.619410 
788.000000	 94.596214 
787.000000	 94.586095 
786.000000	 94.573134 
785.000000	 94.547224 
784.000000	 94.511766 
783.000000	 94.474899 
782.000000	 94.437631 
781.000000	 94.394228 
780.000000	 94.340750 
779.000000	 94.278797 
778.000000	 94.212992 
777.000000	 94.147141 
776.000000	 94.078023 
775.000000	 93.989886 
774.000000	 93.865312 
773.000000	 93.713260 
772.000000	 93.579303 
771.000000	 93.510635 
770.000000	 93.507928 
769.000000	 93.522701 
768.000000	 93.503315 
767.000000	 93.432796 
766.000000	 93.324299 
765.000000	 93.200440 
764.000000	 93.085260 
763.000000	 92.998757 
762.000000	 92.945348 
761.000000	 92.914182 
760.000000	 92.894267 
759.000000	 92.876862 
758.000000	 92.842676 
757.000000	 92.770358 
756.000000	 92.662723 
755.000000	 92.530109 
754.000000	 92.330277 
753.000000	 91.972958 
752.000000	 91.442402 
751.000000	 90.896000 
750.000000	 90.571656 
749.000000	 90.572349 
748.000000	 90.765002 
747.000000	 90.906163 
746.000000	 90.849263 
745.000000	 90.614522 
744.000000	 90.299195 
743.000000	 89.977440 
742.000000	 89.677084 
741.000000	 89.392223 
740.000000	 89.088267 
739.000000	 88.718439 
738.000000	 88.262894 
737.000000	 87.750165 
736.000000	 87.230743 
735.000000	 86.734555 
734.000000	 86.260124 
733.000000	 85.794724 
732.000000	 85.329095 
731.000000	 84.853095 
730.000000	 84.353156 
729.000000	 83.823356 
728.000000	 83.275534 
727.000000	 82.734459 
726.000000	 82.229116 
725.000000	 81.794791 
724.000000	 81.475821 
723.000000	 81.316803 
722.000000	 81.348472 
721.000000	 81.571942 
720.000000	 81.940921 
719.000000	 82.367496 
718.000000	 82.769151 
717.000000	 83.111519 
716.000000	 83.405633 
715.000000	 83.679492 
714.000000	 83.951467 
713.000000	 84.215470 
712.000000	 84.446469 
711.000000	 84.627746 
710.000000	 84.777349 
709.000000	 84.939717 
708.000000	 85.145499 
707.000000	 85.385048 
706.000000	 85.623448 
705.000000	 85.834353 
704.000000	 86.011747 
703.000000	 86.156732 
702.000000	 86.270730 
701.000000	 86.363397 
700.000000	 86.454152 
699.000000	 86.560319 
698.000000	 86.686786 
697.000000	 86.831340 
696.000000	 86.993521 
695.000000	 87.170398 
694.000000	 87.350348 
693.000000	 87.518195 
692.000000	 87.669009 
691.000000	 87.815220 
690.000000	 87.974909 
689.000000	 88.156052 
688.000000	 88.354567 
687.000000	 88.565543 
686.000000	 88.789861 
685.000000	 89.021506 
684.000000	 89.236857 
683.000000	 89.410845 
682.000000	 89.542838 
681.000000	 89.664710 
680.000000	 89.825107 
679.000000	 90.059915 
678.000000	 90.363860 
677.000000	 90.679547 
676.000000	 90.930242 
675.000000	 91.087573 
674.000000	 91.183534 
673.000000	 91.265389 
672.000000	 91.359765 
671.000000	 91.493129 
670.000000	 91.719844 
669.000000	 92.112186 
668.000000	 92.566222 
667.000000	 92.775489 
666.000000	 92.780965 
665.000000	 92.777548 
664.000000	 92.804428 
663.000000	 92.845686 
662.000000	 92.909319 
661.000000	 93.007684 
660.000000	 93.117366 
659.000000	 93.199559 
658.000000	 93.258988 
657.000000	 93.337962 
656.000000	 93.454568 
655.000000	 93.589095 
654.000000	 93.719944 
653.000000	 93.833999 
652.000000	 93.903843 
651.000000	 93.888366 
650.000000	 93.804370 

