PE IR                   SPECTRUM    ASCII       PEDS        1.60        
  -1
124D~1.ASC
22/04/14
10:07:22.00
22/04/14
10:07:22.00
Admin

650.000000
4









SPECTRUM ONE,CPU32 MAIN 00.02.6000 25-JUNE-2003 12:00:00
MIR TGS
MIR
OPTKBR
68128
0.200000

4.000000
STRONG
RATIO
SPECTRUM
MAGNITUDE
UNIVERSAL ATR
DOUBLE

COMBINED


0


#HDR
-1
-1
#GR
CM-1
%T
0.00002384185791015625
0.0
4000.000000
-1.000000
3351
8
102.411042
35.909437
#DATA
4000.000000	102.079985 
3999.000000	102.084277 
3998.000000	102.088549 
3997.000000	102.097821 
3996.000000	102.106599 
3995.000000	102.105773 
3994.000000	102.092873 
3993.000000	102.072850 
3992.000000	102.050964 
3991.000000	102.028960 
3990.000000	102.007507 
3989.000000	101.988540 
3988.000000	101.974051 
3987.000000	101.964685 
3986.000000	101.959733 
3985.000000	101.957020 
3984.000000	101.953853 
3983.000000	101.950360 
3982.000000	101.950642 
3981.000000	101.958358 
3980.000000	101.972345 
3979.000000	101.989187 
3978.000000	102.008407 
3977.000000	102.031134 
3976.000000	102.053557 
3975.000000	102.066421 
3974.000000	102.064221 
3973.000000	102.053080 
3972.000000	102.046513 
3971.000000	102.052770 
3970.000000	102.067740 
3969.000000	102.079371 
3968.000000	102.079104 
3967.000000	102.069228 
3966.000000	102.059990 
3965.000000	102.059152 
3964.000000	102.065243 
3963.000000	102.071342 
3962.000000	102.072802 
3961.000000	102.069255 
3960.000000	102.061207 
3959.000000	102.049422 
3958.000000	102.039035 
3957.000000	102.037459 
3956.000000	102.045236 
3955.000000	102.051977 
3954.000000	102.047177 
3953.000000	102.033856 
3952.000000	102.028633 
3951.000000	102.047767 
3950.000000	102.089976 
3949.000000	102.134090 
3948.000000	102.156793 
3947.000000	102.155360 
3946.000000	102.147535 
3945.000000	102.148949 
3944.000000	102.156861 
3943.000000	102.159048 
3942.000000	102.154662 
3941.000000	102.154067 
3940.000000	102.158834 
3939.000000	102.156318 
3938.000000	102.138045 
3937.000000	102.111685 
3936.000000	102.093669 
3935.000000	102.092936 
3934.000000	102.105845 
3933.000000	102.121155 
3932.000000	102.126285 
3931.000000	102.115182 
3930.000000	102.093098 
3929.000000	102.073724 
3928.000000	102.068398 
3927.000000	102.074129 
3926.000000	102.076076 
3925.000000	102.067099 
3924.000000	102.062305 
3923.000000	102.081904 
3922.000000	102.126591 
3921.000000	102.182396 
3920.000000	102.236072 
3919.000000	102.271789 
3918.000000	102.268022 
3917.000000	102.218314 
3916.000000	102.151392 
3915.000000	102.110468 
3914.000000	102.112533 
3913.000000	102.137665 
3912.000000	102.156345 
3911.000000	102.154177 
3910.000000	102.139553 
3909.000000	102.127883 
3908.000000	102.126385 
3907.000000	102.123123 
3906.000000	102.096479 
3905.000000	102.040293 
3904.000000	101.989233 
3903.000000	102.003515 
3902.000000	102.105014 
3901.000000	102.241531 
3900.000000	102.332156 
3899.000000	102.342623 
3898.000000	102.300334 
3897.000000	102.243209 
3896.000000	102.188105 
3895.000000	102.146359 
3894.000000	102.133966 
3893.000000	102.145315 
3892.000000	102.145727 
3891.000000	102.113318 
3890.000000	102.082466 
3889.000000	102.092406 
3888.000000	102.141909 
3887.000000	102.201172 
3886.000000	102.233488 
3885.000000	102.230865 
3884.000000	102.227045 
3883.000000	102.236096 
3882.000000	102.241131 
3881.000000	102.227952 
3880.000000	102.196991 
3879.000000	102.173140 
3878.000000	102.180262 
3877.000000	102.206084 
3876.000000	102.220988 
3875.000000	102.202930 
3874.000000	102.168209 
3873.000000	102.170983 
3872.000000	102.227535 
3871.000000	102.273218 
3870.000000	102.239885 
3869.000000	102.162212 
3868.000000	102.130123 
3867.000000	102.155142 
3866.000000	102.194026 
3865.000000	102.228682 
3864.000000	102.258403 
3863.000000	102.268640 
3862.000000	102.237833 
3861.000000	102.163695 
3860.000000	102.073010 
3859.000000	101.986572 
3858.000000	101.915823 
3857.000000	101.878966 
3856.000000	101.906978 
3855.000000	101.992901 
3854.000000	102.047735 
3853.000000	102.032620 
3852.000000	102.064669 
3851.000000	102.175345 
3850.000000	102.253968 
3849.000000	102.256310 
3848.000000	102.220763 
3847.000000	102.182227 
3846.000000	102.145746 
3845.000000	102.105892 
3844.000000	102.062803 
3843.000000	102.021960 
3842.000000	101.997905 
3841.000000	102.001308 
3840.000000	102.026136 
3839.000000	102.051224 
3838.000000	102.065402 
3837.000000	102.079682 
3836.000000	102.111358 
3835.000000	102.155850 
3834.000000	102.195093 
3833.000000	102.217160 
3832.000000	102.222253 
3831.000000	102.223299 
3830.000000	102.231598 
3829.000000	102.234778 
3828.000000	102.205239 
3827.000000	102.131040 
3826.000000	102.045347 
3825.000000	102.007856 
3824.000000	102.045582 
3823.000000	102.118536 
3822.000000	102.145003 
3821.000000	102.086708 
3820.000000	102.031255 
3819.000000	102.061639 
3818.000000	102.129751 
3817.000000	102.159007 
3816.000000	102.135869 
3815.000000	102.118971 
3814.000000	102.158052 
3813.000000	102.209072 
3812.000000	102.214843 
3811.000000	102.195885 
3810.000000	102.200339 
3809.000000	102.227232 
3808.000000	102.218879 
3807.000000	102.138286 
3806.000000	102.043679 
3805.000000	102.019503 
3804.000000	102.067867 
3803.000000	102.133192 
3802.000000	102.157269 
3801.000000	102.132943 
3800.000000	102.135676 
3799.000000	102.182999 
3798.000000	102.205010 
3797.000000	102.174893 
3796.000000	102.129982 
3795.000000	102.118152 
3794.000000	102.148457 
3793.000000	102.192621 
3792.000000	102.223132 
3791.000000	102.230021 
3790.000000	102.209766 
3789.000000	102.168406 
3788.000000	102.125929 
3787.000000	102.102355 
3786.000000	102.098172 
3785.000000	102.101552 
3784.000000	102.112774 
3783.000000	102.145716 
3782.000000	102.201345 
3781.000000	102.254680 
3780.000000	102.273797 
3779.000000	102.251890 
3778.000000	102.219566 
3777.000000	102.203774 
3776.000000	102.197742 
3775.000000	102.182271 
3774.000000	102.156026 
3773.000000	102.130272 
3772.000000	102.109972 
3771.000000	102.089916 
3770.000000	102.073382 
3769.000000	102.079253 
3768.000000	102.113197 
3767.000000	102.147372 
3766.000000	102.159882 
3765.000000	102.167636 
3764.000000	102.201850 
3763.000000	102.256084 
3762.000000	102.281912 
3761.000000	102.249280 
3760.000000	102.187384 
3759.000000	102.148991 
3758.000000	102.152502 
3757.000000	102.168686 
3756.000000	102.160032 
3755.000000	102.105555 
3754.000000	102.015504 
3753.000000	101.942000 
3752.000000	101.942507 
3751.000000	102.003530 
3750.000000	102.049744 
3749.000000	102.045612 
3748.000000	102.016777 
3747.000000	102.001614 
3746.000000	102.023966 
3745.000000	102.065270 
3744.000000	102.099406 
3743.000000	102.173470 
3742.000000	102.267973 
3741.000000	102.277403 
3740.000000	102.204894 
3739.000000	102.144078 
3738.000000	102.144557 
3737.000000	102.165374 
3736.000000	102.155810 
3735.000000	102.137102 
3734.000000	102.161262 
3733.000000	102.221308 
3732.000000	102.267959 
3731.000000	102.287351 
3730.000000	102.297149 
3729.000000	102.305610 
3728.000000	102.310151 
3727.000000	102.312441 
3726.000000	102.322529 
3725.000000	102.351611 
3724.000000	102.389545 
3723.000000	102.411042 
3722.000000	102.402302 
3721.000000	102.369211 
3720.000000	102.325409 
3719.000000	102.276862 
3718.000000	102.220149 
3717.000000	102.150864 
3716.000000	102.076077 
3715.000000	102.011475 
3714.000000	101.980765 
3713.000000	102.000570 
3712.000000	102.048453 
3711.000000	102.079446 
3710.000000	102.080182 
3709.000000	102.067325 
3708.000000	102.056685 
3707.000000	102.053782 
3706.000000	102.058733 
3705.000000	102.066914 
3704.000000	102.070630 
3703.000000	102.063041 
3702.000000	102.043258 
3701.000000	102.025875 
3700.000000	102.030425 
3699.000000	102.050838 
3698.000000	102.056238 
3697.000000	102.029191 
3696.000000	101.988120 
3695.000000	101.963280 
3694.000000	101.957282 
3693.000000	101.948929 
3692.000000	101.924986 
3691.000000	101.889503 
3690.000000	101.851492 
3689.000000	101.820529 
3688.000000	101.821552 
3687.000000	101.868646 
3686.000000	101.928291 
3685.000000	101.953563 
3684.000000	101.939505 
3683.000000	101.917712 
3682.000000	101.904366 
3681.000000	101.872411 
3680.000000	101.791865 
3679.000000	101.692129 
3678.000000	101.647070 
3677.000000	101.692876 
3676.000000	101.760812 
3675.000000	101.779208 
3674.000000	101.790873 
3673.000000	101.816634 
3672.000000	101.814096 
3671.000000	101.777754 
3670.000000	101.724657 
3669.000000	101.688760 
3668.000000	101.702609 
3667.000000	101.737466 
3666.000000	101.753810 
3665.000000	101.747098 
3664.000000	101.724172 
3663.000000	101.688930 
3662.000000	101.648896 
3661.000000	101.618074 
3660.000000	101.610067 
3659.000000	101.625869 
3658.000000	101.646117 
3657.000000	101.644710 
3656.000000	101.618372 
3655.000000	101.600454 
3654.000000	101.605141 
3653.000000	101.604793 
3652.000000	101.578357 
3651.000000	101.527672 
3650.000000	101.457937 
3649.000000	101.392197 
3648.000000	101.367328 
3647.000000	101.384956 
3646.000000	101.411832 
3645.000000	101.420873 
3644.000000	101.409723 
3643.000000	101.392892 
3642.000000	101.385816 
3641.000000	101.390412 
3640.000000	101.394414 
3639.000000	101.383403 
3638.000000	101.362020 
3637.000000	101.350864 
3636.000000	101.352993 
3635.000000	101.340732 
3634.000000	101.290670 
3633.000000	101.222235 
3632.000000	101.176285 
3631.000000	101.169656 
3630.000000	101.170919 
3629.000000	101.129760 
3628.000000	101.075345 
3627.000000	101.075287 
3626.000000	101.098659 
3625.000000	101.090086 
3624.000000	101.062351 
3623.000000	101.052062 
3622.000000	101.066048 
3621.000000	101.074127 
3620.000000	101.040080 
3619.000000	100.961907 
3618.000000	100.879543 
3617.000000	100.828518 
3616.000000	100.805594 
3615.000000	100.786969 
3614.000000	100.751335 
3613.000000	100.694779 
3612.000000	100.632906 
3611.000000	100.582719 
3610.000000	100.546552 
3609.000000	100.516646 
3608.000000	100.486967 
3607.000000	100.458147 
3606.000000	100.424968 
3605.000000	100.368185 
3604.000000	100.274844 
3603.000000	100.158394 
3602.000000	100.054498 
3601.000000	99.996931  
3600.000000	99.990595  
3599.000000	100.006169 
3598.000000	100.002687 
3597.000000	99.963451  
3596.000000	99.899452  
3595.000000	99.823875  
3594.000000	99.737618  
3593.000000	99.645590  
3592.000000	99.563586  
3591.000000	99.510726  
3590.000000	99.490613  
3589.000000	99.478811  
3588.000000	99.439135  
3587.000000	99.368667  
3586.000000	99.302409  
3585.000000	99.257950  
3584.000000	99.216557  
3583.000000	99.156059  
3582.000000	99.070112  
3581.000000	98.967295  
3580.000000	98.864387  
3579.000000	98.777642  
3578.000000	98.711424  
3577.000000	98.656313  
3576.000000	98.596679  
3575.000000	98.522268  
3574.000000	98.434283  
3573.000000	98.343008  
3572.000000	98.261893  
3571.000000	98.202185  
3570.000000	98.168129  
3569.000000	98.144432  
3568.000000	98.094183  
3567.000000	97.989768  
3566.000000	97.850996  
3565.000000	97.722037  
3564.000000	97.621498  
3563.000000	97.535605  
3562.000000	97.443663  
3561.000000	97.344210  
3560.000000	97.261770  
3559.000000	97.218804  
3558.000000	97.200814  
3557.000000	97.161502  
3556.000000	97.068224  
3555.000000	96.933635  
3554.000000	96.798513  
3553.000000	96.690162  
3552.000000	96.606416  
3551.000000	96.533507  
3550.000000	96.463008  
3549.000000	96.389192  
3548.000000	96.303142  
3547.000000	96.197030  
3546.000000	96.073519  
3545.000000	95.945658  
3544.000000	95.824019  
3543.000000	95.708505  
3542.000000	95.595539  
3541.000000	95.486311  
3540.000000	95.383570  
3539.000000	95.283649  
3538.000000	95.179331  
3537.000000	95.071007  
3536.000000	94.968223  
3535.000000	94.875675  
3534.000000	94.782600  
3533.000000	94.673217  
3532.000000	94.543340  
3531.000000	94.402491  
3530.000000	94.260829  
3529.000000	94.124954  
3528.000000	94.006064  
3527.000000	93.920237  
3526.000000	93.868997  
3525.000000	93.824888  
3524.000000	93.747860  
3523.000000	93.618878  
3522.000000	93.452131  
3521.000000	93.273930  
3520.000000	93.098118  
3519.000000	92.926002  
3518.000000	92.761481  
3517.000000	92.615645  
3516.000000	92.494479  
3515.000000	92.388981  
3514.000000	92.280969  
3513.000000	92.156239  
3512.000000	92.010714  
3511.000000	91.852227  
3510.000000	91.699791  
3509.000000	91.574871  
3508.000000	91.482397  
3507.000000	91.399665  
3506.000000	91.289698  
3505.000000	91.130888  
3504.000000	90.934880  
3503.000000	90.736288  
3502.000000	90.566225  
3501.000000	90.434379  
3500.000000	90.329977  
3499.000000	90.233636  
3498.000000	90.130490  
3497.000000	90.018994  
3496.000000	89.905907  
3495.000000	89.788224  
3494.000000	89.645222  
3493.000000	89.458249  
3492.000000	89.237621  
3491.000000	89.021801  
3490.000000	88.844846  
3489.000000	88.708143  
3488.000000	88.586247  
3487.000000	88.455396  
3486.000000	88.309783  
3485.000000	88.152823  
3484.000000	87.984448  
3483.000000	87.803681  
3482.000000	87.620328  
3481.000000	87.455016  
3480.000000	87.320718  
3479.000000	87.205617  
3478.000000	87.079511  
3477.000000	86.919196  
3476.000000	86.726853  
3475.000000	86.523671  
3474.000000	86.328969  
3473.000000	86.148939  
3472.000000	85.981659  
3471.000000	85.824204  
3470.000000	85.672255  
3469.000000	85.519410  
3468.000000	85.363819  
3467.000000	85.213560  
3466.000000	85.078406  
3465.000000	84.955227  
3464.000000	84.827708  
3463.000000	84.684019  
3462.000000	84.529846  
3461.000000	84.378844  
3460.000000	84.233504  
3459.000000	84.083367  
3458.000000	83.922686  
3457.000000	83.761601  
3456.000000	83.614277  
3455.000000	83.479983  
3454.000000	83.342722  
3453.000000	83.189589  
3452.000000	83.023533  
3451.000000	82.855685  
3450.000000	82.689307  
3449.000000	82.517895  
3448.000000	82.337178  
3447.000000	82.152144  
3446.000000	81.969158  
3445.000000	81.786605  
3444.000000	81.599803  
3443.000000	81.413294  
3442.000000	81.241768  
3441.000000	81.097267  
3440.000000	80.977457  
3439.000000	80.865090  
3438.000000	80.737019  
3437.000000	80.576895  
3436.000000	80.385724  
3435.000000	80.182754  
3434.000000	79.992461  
3433.000000	79.828372  
3432.000000	79.690114  
3431.000000	79.572984  
3430.000000	79.472095  
3429.000000	79.375297  
3428.000000	79.260308  
3427.000000	79.109147  
3426.000000	78.926020  
3425.000000	78.736191  
3424.000000	78.565707  
3423.000000	78.424243  
3422.000000	78.305995  
3421.000000	78.200380  
3420.000000	78.098456  
3419.000000	77.992905  
3418.000000	77.876948  
3417.000000	77.744212  
3416.000000	77.590600  
3415.000000	77.420373  
3414.000000	77.250977  
3413.000000	77.103325  
3412.000000	76.979493  
3411.000000	76.854464  
3410.000000	76.700529  
3409.000000	76.520942  
3408.000000	76.350778  
3407.000000	76.221030  
3406.000000	76.129052  
3405.000000	76.046778  
3404.000000	75.949406  
3403.000000	75.829733  
3402.000000	75.692648  
3401.000000	75.548512  
3400.000000	75.411614  
3399.000000	75.294351  
3398.000000	75.196436  
3397.000000	75.103313  
3396.000000	74.998496  
3395.000000	74.876114  
3394.000000	74.741605  
3393.000000	74.605205  
3392.000000	74.478160  
3391.000000	74.371267  
3390.000000	74.289605  
3389.000000	74.225026  
3388.000000	74.155822  
3387.000000	74.057645  
3386.000000	73.918748  
3385.000000	73.748462  
3384.000000	73.572718  
3383.000000	73.420426  
3382.000000	73.309030  
3381.000000	73.237198  
3380.000000	73.187499  
3379.000000	73.136118  
3378.000000	73.063039  
3377.000000	72.958755  
3376.000000	72.828702  
3375.000000	72.694132  
3374.000000	72.582478  
3373.000000	72.507790  
3372.000000	72.458119  
3371.000000	72.406400  
3370.000000	72.334809  
3369.000000	72.245311  
3368.000000	72.147994  
3367.000000	72.047608  
3366.000000	71.945447  
3365.000000	71.846769  
3364.000000	71.758108  
3363.000000	71.679596  
3362.000000	71.606344  
3361.000000	71.536417  
3360.000000	71.472242  
3359.000000	71.414628  
3358.000000	71.359785  
3357.000000	71.302542  
3356.000000	71.239323  
3355.000000	71.169211  
3354.000000	71.096192  
3353.000000	71.029512  
3352.000000	70.977865  
3351.000000	70.942892  
3350.000000	70.919795  
3349.000000	70.900760  
3348.000000	70.874038  
3347.000000	70.825942  
3346.000000	70.754084  
3345.000000	70.677267  
3344.000000	70.620976  
3343.000000	70.589140  
3342.000000	70.559182  
3341.000000	70.510035  
3340.000000	70.447012  
3339.000000	70.392122  
3338.000000	70.356119  
3337.000000	70.329141  
3336.000000	70.296233  
3335.000000	70.254256  
3334.000000	70.213111  
3333.000000	70.186097  
3332.000000	70.179203  
3331.000000	70.184383  
3330.000000	70.182910  
3329.000000	70.160779  
3328.000000	70.123221  
3327.000000	70.090563  
3326.000000	70.077285  
3325.000000	70.077351  
3324.000000	70.071437  
3323.000000	70.047280  
3322.000000	70.012025  
3321.000000	69.985539  
3320.000000	69.982016  
3319.000000	69.996978  
3318.000000	70.011998  
3317.000000	70.012567  
3316.000000	70.000136  
3315.000000	69.986193  
3314.000000	69.977672  
3313.000000	69.972389  
3312.000000	69.967335  
3311.000000	69.965890  
3310.000000	69.974893  
3309.000000	69.997865  
3308.000000	70.032809  
3307.000000	70.073360  
3306.000000	70.109956  
3305.000000	70.133461  
3304.000000	70.141736  
3303.000000	70.141603  
3302.000000	70.142082  
3301.000000	70.147572  
3300.000000	70.159620  
3299.000000	70.180884  
3298.000000	70.210834  
3297.000000	70.239590  
3296.000000	70.254973  
3295.000000	70.258690  
3294.000000	70.268779  
3293.000000	70.301322  
3292.000000	70.353934  
3291.000000	70.411964  
3290.000000	70.465863  
3289.000000	70.514353  
3288.000000	70.554140  
3287.000000	70.578615  
3286.000000	70.591067  
3285.000000	70.611122  
3284.000000	70.659420  
3283.000000	70.736077  
3282.000000	70.818433  
3281.000000	70.880680  
3280.000000	70.914475  
3279.000000	70.932125  
3278.000000	70.953342  
3277.000000	70.989846  
3276.000000	71.040827  
3275.000000	71.100017  
3274.000000	71.163452  
3273.000000	71.229352  
3272.000000	71.295154  
3271.000000	71.360414  
3270.000000	71.431129  
3269.000000	71.513937  
3268.000000	71.604211  
3267.000000	71.686651  
3266.000000	71.751479  
3265.000000	71.804662  
3264.000000	71.856804  
3263.000000	71.907439  
3262.000000	71.949957  
3261.000000	71.990628  
3260.000000	72.051919  
3259.000000	72.151115  
3258.000000	72.279872  
3257.000000	72.410111  
3256.000000	72.519907  
3255.000000	72.610448  
3254.000000	72.697100  
3253.000000	72.787411  
3252.000000	72.872236  
3251.000000	72.939502  
3250.000000	72.993274  
3249.000000	73.054555  
3248.000000	73.142304  
3247.000000	73.256616  
3246.000000	73.381381  
3245.000000	73.500393  
3244.000000	73.608841  
3243.000000	73.711951  
3242.000000	73.816559  
3241.000000	73.924301  
3240.000000	74.031158  
3239.000000	74.133101  
3238.000000	74.230989  
3237.000000	74.327602  
3236.000000	74.421585  
3235.000000	74.509941  
3234.000000	74.597014  
3233.000000	74.693780  
3232.000000	74.804240  
3231.000000	74.919046  
3230.000000	75.029341  
3229.000000	75.141972  
3228.000000	75.271644  
3227.000000	75.419186  
3226.000000	75.566610  
3225.000000	75.696127  
3224.000000	75.808227  
3223.000000	75.918844  
3222.000000	76.043697  
3221.000000	76.187133  
3220.000000	76.340448  
3219.000000	76.486712  
3218.000000	76.610173  
3217.000000	76.705933  
3216.000000	76.783335  
3215.000000	76.861680  
3214.000000	76.962503  
3213.000000	77.100297  
3212.000000	77.272799  
3211.000000	77.458637  
3210.000000	77.631024  
3209.000000	77.779553  
3208.000000	77.916799  
3207.000000	78.060135  
3206.000000	78.209363  
3205.000000	78.346413  
3204.000000	78.456851  
3203.000000	78.547942  
3202.000000	78.643924  
3201.000000	78.765063  
3200.000000	78.912342  
3199.000000	79.070657  
3198.000000	79.223953  
3197.000000	79.365899  
3196.000000	79.498617  
3195.000000	79.626452  
3194.000000	79.754063  
3193.000000	79.888052  
3192.000000	80.036004  
3191.000000	80.202224  
3190.000000	80.384515  
3189.000000	80.573895  
3188.000000	80.756683  
3187.000000	80.920125  
3186.000000	81.060798  
3185.000000	81.188171  
3184.000000	81.317529  
3183.000000	81.458709  
3182.000000	81.611855  
3181.000000	81.770910  
3180.000000	81.927905  
3179.000000	82.075731  
3178.000000	82.211762  
3177.000000	82.339329  
3176.000000	82.462591  
3175.000000	82.581054  
3174.000000	82.693577  
3173.000000	82.806522  
3172.000000	82.931178  
3171.000000	83.071653  
3170.000000	83.221601  
3169.000000	83.375205  
3168.000000	83.534159  
3167.000000	83.698892  
3166.000000	83.859406  
3165.000000	84.002916  
3164.000000	84.128354  
3163.000000	84.246891  
3162.000000	84.370196  
3161.000000	84.504297  
3160.000000	84.651845  
3159.000000	84.810318  
3158.000000	84.967672  
3157.000000	85.111091  
3156.000000	85.245122  
3155.000000	85.391537  
3154.000000	85.562266  
3153.000000	85.738262  
3152.000000	85.886144  
3151.000000	85.995450  
3150.000000	86.090216  
3149.000000	86.201201  
3148.000000	86.334164  
3147.000000	86.470084  
3146.000000	86.591474  
3145.000000	86.701722  
3144.000000	86.818785  
3143.000000	86.954470  
3142.000000	87.101857  
3141.000000	87.241657  
3140.000000	87.359830  
3139.000000	87.459860  
3138.000000	87.559065  
3137.000000	87.673100  
3136.000000	87.803401  
3135.000000	87.938631  
3134.000000	88.066378  
3133.000000	88.182202  
3132.000000	88.288821  
3131.000000	88.390619  
3130.000000	88.491686  
3129.000000	88.597231  
3128.000000	88.711911  
3127.000000	88.834177  
3126.000000	88.954620  
3125.000000	89.064088  
3124.000000	89.163994  
3123.000000	89.265041  
3122.000000	89.373803  
3121.000000	89.483966  
3120.000000	89.584383  
3119.000000	89.673915  
3118.000000	89.763856  
3117.000000	89.864351  
3116.000000	89.970748  
3115.000000	90.065624  
3114.000000	90.134481  
3113.000000	90.180207  
3112.000000	90.224316  
3111.000000	90.294156  
3110.000000	90.405267  
3109.000000	90.552040  
3108.000000	90.713279  
3107.000000	90.866114  
3106.000000	90.995587  
3105.000000	91.095976  
3104.000000	91.169500  
3103.000000	91.225858  
3102.000000	91.279541  
3101.000000	91.343605  
3100.000000	91.423817  
3099.000000	91.516713  
3098.000000	91.611758  
3097.000000	91.696987  
3096.000000	91.767369  
3095.000000	91.830281  
3094.000000	91.900212  
3093.000000	91.984785  
3092.000000	92.076448  
3091.000000	92.159460  
3090.000000	92.224466  
3089.000000	92.275391  
3088.000000	92.323750  
3087.000000	92.379158  
3086.000000	92.444923  
3085.000000	92.519087  
3084.000000	92.597027  
3083.000000	92.673523  
3082.000000	92.744203  
3081.000000	92.806365  
3080.000000	92.859245  
3079.000000	92.904503  
3078.000000	92.947111  
3077.000000	92.994714  
3076.000000	93.053785  
3075.000000	93.124136  
3074.000000	93.196878  
3073.000000	93.260037  
3072.000000	93.308681  
3071.000000	93.349329  
3070.000000	93.392634  
3069.000000	93.442253  
3068.000000	93.492269  
3067.000000	93.534217  
3066.000000	93.563731  
3065.000000	93.581414  
3064.000000	93.592725  
3063.000000	93.608406  
3062.000000	93.638845  
3061.000000	93.682974  
3060.000000	93.726158  
3059.000000	93.754477  
3058.000000	93.769312  
3057.000000	93.782707  
3056.000000	93.801117  
3055.000000	93.821076  
3054.000000	93.839100  
3053.000000	93.855569  
3052.000000	93.866887  
3051.000000	93.864680  
3050.000000	93.849521  
3049.000000	93.837787  
3048.000000	93.845983  
3047.000000	93.872195  
3046.000000	93.900707  
3045.000000	93.920694  
3044.000000	93.931361  
3043.000000	93.932248  
3042.000000	93.920786  
3041.000000	93.901596  
3040.000000	93.888737  
3039.000000	93.893898  
3038.000000	93.916895  
3037.000000	93.948646  
3036.000000	93.976988  
3035.000000	93.989118  
3034.000000	93.978571  
3033.000000	93.955339  
3032.000000	93.941597  
3031.000000	93.950747  
3030.000000	93.976027  
3029.000000	94.005146  
3028.000000	94.038841  
3027.000000	94.085782  
3026.000000	94.143735  
3025.000000	94.196615  
3024.000000	94.230373  
3023.000000	94.243240  
3022.000000	94.240512  
3021.000000	94.228738  
3020.000000	94.216921  
3019.000000	94.213766  
3018.000000	94.218544  
3017.000000	94.221148  
3016.000000	94.215936  
3015.000000	94.209457  
3014.000000	94.209293  
3013.000000	94.211322  
3012.000000	94.205211  
3011.000000	94.188974  
3010.000000	94.169592  
3009.000000	94.149425  
3008.000000	94.120155  
3007.000000	94.073993  
3006.000000	94.016886  
3005.000000	93.965840  
3004.000000	93.933625  
3003.000000	93.918692  
3002.000000	93.909829  
3001.000000	93.896920  
3000.000000	93.874687  
2999.000000	93.838883  
2998.000000	93.785899  
2997.000000	93.719525  
2996.000000	93.653503  
2995.000000	93.600809  
2994.000000	93.559761  
2993.000000	93.515027  
2992.000000	93.452589  
2991.000000	93.369292  
2990.000000	93.267590  
2989.000000	93.148710  
2988.000000	93.016828  
2987.000000	92.885220  
2986.000000	92.769509  
2985.000000	92.672661  
2984.000000	92.580793  
2983.000000	92.475622  
2982.000000	92.348585  
2981.000000	92.201881  
2980.000000	92.040024  
2979.000000	91.865534  
2978.000000	91.683292  
2977.000000	91.503369  
2976.000000	91.331960  
2975.000000	91.157002  
2974.000000	90.949347  
2973.000000	90.688475  
2972.000000	90.389123  
2971.000000	90.094713  
2970.000000	89.838032  
2969.000000	89.611661  
2968.000000	89.381404  
2967.000000	89.124239  
2966.000000	88.846038  
2965.000000	88.564681  
2964.000000	88.287606  
2963.000000	88.009510  
2962.000000	87.724111  
2961.000000	87.431703  
2960.000000	87.138173  
2959.000000	86.850582  
2958.000000	86.570859  
2957.000000	86.291787  
2956.000000	86.003904  
2955.000000	85.710039  
2954.000000	85.427996  
2953.000000	85.173189  
2952.000000	84.943148  
2951.000000	84.725799  
2950.000000	84.519291  
2949.000000	84.333603  
2948.000000	84.172390  
2947.000000	84.023241  
2946.000000	83.870557  
2945.000000	83.711975  
2944.000000	83.556939  
2943.000000	83.413557  
2942.000000	83.282440  
2941.000000	83.161085  
2940.000000	83.048697  
2939.000000	82.946776  
2938.000000	82.858252  
2937.000000	82.785258  
2936.000000	82.724452  
2935.000000	82.665996  
2934.000000	82.602184  
2933.000000	82.537475  
2932.000000	82.485393  
2931.000000	82.453790  
2930.000000	82.438015  
2929.000000	82.432456  
2928.000000	82.445663  
2927.000000	82.497732  
2926.000000	82.601684  
2925.000000	82.751407  
2924.000000	82.929799  
2923.000000	83.125334  
2922.000000	83.337902  
2921.000000	83.570687  
2920.000000	83.819835  
2919.000000	84.071416  
2918.000000	84.306025  
2917.000000	84.507922  
2916.000000	84.674299  
2915.000000	84.817659  
2914.000000	84.957305  
2913.000000	85.107048  
2912.000000	85.270350  
2911.000000	85.444038  
2910.000000	85.621738  
2909.000000	85.793235  
2908.000000	85.946699  
2907.000000	86.077903  
2906.000000	86.196996  
2905.000000	86.321204  
2904.000000	86.458233  
2903.000000	86.597579  
2902.000000	86.718658  
2901.000000	86.806916  
2900.000000	86.863626  
2899.000000	86.903823  
2898.000000	86.945415  
2897.000000	86.996268  
2896.000000	87.047247  
2895.000000	87.078892  
2894.000000	87.078793  
2893.000000	87.053166  
2892.000000	87.018471  
2891.000000	86.982260  
2890.000000	86.937898  
2889.000000	86.881497  
2888.000000	86.828226  
2887.000000	86.802531  
2886.000000	86.810400  
2885.000000	86.827934  
2884.000000	86.823253  
2883.000000	86.788193  
2882.000000	86.744988  
2881.000000	86.722116  
2880.000000	86.727637  
2879.000000	86.746878  
2878.000000	86.762698  
2877.000000	86.774385  
2876.000000	86.796594  
2875.000000	86.842993  
2874.000000	86.914646  
2873.000000	87.004534  
2872.000000	87.108007  
2871.000000	87.223259  
2870.000000	87.343563  
2869.000000	87.457738  
2868.000000	87.562165  
2867.000000	87.665943  
2866.000000	87.777341  
2865.000000	87.888103  
2864.000000	87.978636  
2863.000000	88.038521  
2862.000000	88.075367  
2861.000000	88.103296  
2860.000000	88.129691  
2859.000000	88.156115  
2858.000000	88.186763  
2857.000000	88.231738  
2856.000000	88.303152  
2855.000000	88.408448  
2854.000000	88.544932  
2853.000000	88.700939  
2852.000000	88.864830  
2851.000000	89.030758  
2850.000000	89.191195  
2849.000000	89.327669  
2848.000000	89.420251  
2847.000000	89.469748  
2846.000000	89.500763  
2845.000000	89.535245  
2844.000000	89.568733  
2843.000000	89.579748  
2842.000000	89.558370  
2841.000000	89.516640  
2840.000000	89.471526  
2839.000000	89.427005  
2838.000000	89.376951  
2837.000000	89.321220  
2836.000000	89.274733  
2835.000000	89.261109  
2834.000000	89.297458  
2833.000000	89.382439  
2832.000000	89.497426  
2831.000000	89.620833  
2830.000000	89.743531  
2829.000000	89.872325  
2828.000000	90.021213  
2827.000000	90.200096  
2826.000000	90.408067  
2825.000000	90.632693  
2824.000000	90.856038  
2823.000000	91.066022  
2822.000000	91.264248  
2821.000000	91.462072  
2820.000000	91.668414  
2819.000000	91.881831  
2818.000000	92.092919  
2817.000000	92.291884  
2816.000000	92.474295  
2815.000000	92.642268  
2814.000000	92.801392  
2813.000000	92.955878  
2812.000000	93.106474  
2811.000000	93.252368  
2810.000000	93.391889  
2809.000000	93.519589  
2808.000000	93.627079  
2807.000000	93.712825  
2806.000000	93.790134  
2805.000000	93.878819  
2804.000000	93.986693  
2803.000000	94.103289  
2802.000000	94.212994  
2801.000000	94.309043  
2800.000000	94.391931  
2799.000000	94.460477  
2798.000000	94.512708  
2797.000000	94.554620  
2796.000000	94.600481  
2795.000000	94.660657  
2794.000000	94.731877  
2793.000000	94.802609  
2792.000000	94.866148  
2791.000000	94.924737  
2790.000000	94.980985  
2789.000000	95.030660  
2788.000000	95.069237  
2787.000000	95.104075  
2786.000000	95.152805  
2785.000000	95.225218  
2784.000000	95.310360  
2783.000000	95.386540  
2782.000000	95.442510  
2781.000000	95.484013  
2780.000000	95.521854  
2779.000000	95.560673  
2778.000000	95.600045  
2777.000000	95.638946  
2776.000000	95.675839  
2775.000000	95.710343  
2774.000000	95.748524  
2773.000000	95.800331  
2772.000000	95.865883  
2771.000000	95.928769  
2770.000000	95.970220  
2769.000000	95.988733  
2768.000000	96.000264  
2767.000000	96.021033  
2766.000000	96.055858  
2765.000000	96.101533  
2764.000000	96.153227  
2763.000000	96.205008  
2762.000000	96.250195  
2761.000000	96.285652  
2760.000000	96.314141  
2759.000000	96.340488  
2758.000000	96.366789  
2757.000000	96.391939  
2756.000000	96.414355  
2755.000000	96.435363  
2754.000000	96.461491  
2753.000000	96.501947  
2752.000000	96.560631  
2751.000000	96.631216  
2750.000000	96.702426  
2749.000000	96.765980  
2748.000000	96.815949  
2747.000000	96.844984  
2746.000000	96.851241  
2745.000000	96.849997  
2744.000000	96.868348  
2743.000000	96.921752  
2742.000000	96.999348  
2741.000000	97.075374  
2740.000000	97.129800  
2739.000000	97.155085  
2738.000000	97.152297  
2737.000000	97.132022  
2736.000000	97.116929  
2735.000000	97.131536  
2734.000000	97.182752  
2733.000000	97.252493  
2732.000000	97.311505  
2731.000000	97.340345  
2730.000000	97.339779  
2729.000000	97.326659  
2728.000000	97.321904  
2727.000000	97.338844  
2726.000000	97.377876  
2725.000000	97.429130  
2724.000000	97.478840  
2723.000000	97.514768  
2722.000000	97.531025  
2721.000000	97.533029  
2720.000000	97.537319  
2719.000000	97.561686  
2718.000000	97.611250  
2717.000000	97.672549  
2716.000000	97.721649  
2715.000000	97.741249  
2714.000000	97.734613  
2713.000000	97.724475  
2712.000000	97.734551  
2711.000000	97.769121  
2710.000000	97.812161  
2709.000000	97.846956  
2708.000000	97.872025  
2707.000000	97.895262  
2706.000000	97.918939  
2705.000000	97.938557  
2704.000000	97.953492  
2703.000000	97.969091  
2702.000000	97.986539  
2701.000000	97.998600  
2700.000000	97.999884  
2699.000000	97.996393  
2698.000000	98.000427  
2697.000000	98.018482  
2696.000000	98.047035  
2695.000000	98.077184  
2694.000000	98.099681  
2693.000000	98.108127  
2692.000000	98.103195  
2691.000000	98.095038  
2690.000000	98.097808  
2689.000000	98.118496  
2688.000000	98.151192  
2687.000000	98.183371  
2686.000000	98.207548  
2685.000000	98.225547  
2684.000000	98.241692  
2683.000000	98.255448  
2682.000000	98.264172  
2681.000000	98.270819  
2680.000000	98.281950  
2679.000000	98.295670  
2678.000000	98.298354  
2677.000000	98.280753  
2676.000000	98.254990  
2675.000000	98.247668  
2674.000000	98.274444  
2673.000000	98.325356  
2672.000000	98.375150  
2671.000000	98.403057  
2670.000000	98.402692  
2669.000000	98.381274  
2668.000000	98.354785  
2667.000000	98.339438  
2666.000000	98.341280  
2665.000000	98.354021  
2664.000000	98.369218  
2663.000000	98.385829  
2662.000000	98.406377  
2661.000000	98.427187  
2660.000000	98.439515  
2659.000000	98.441226  
2658.000000	98.441636  
2657.000000	98.450772  
2656.000000	98.466084  
2655.000000	98.473890  
2654.000000	98.465045  
2653.000000	98.447078  
2652.000000	98.438082  
2651.000000	98.448000  
2650.000000	98.467895  
2649.000000	98.480115  
2648.000000	98.478060  
2647.000000	98.472280  
2646.000000	98.476756  
2645.000000	98.493621  
2644.000000	98.513905  
2643.000000	98.528571  
2642.000000	98.533279  
2641.000000	98.525187  
2640.000000	98.503441  
2639.000000	98.475650  
2638.000000	98.458263  
2637.000000	98.465178  
2636.000000	98.496659  
2635.000000	98.541287  
2634.000000	98.586161  
2633.000000	98.621990  
2632.000000	98.641297  
2631.000000	98.639436  
2630.000000	98.621046  
2629.000000	98.601277  
2628.000000	98.594805  
2627.000000	98.603331  
2626.000000	98.617233  
2625.000000	98.629319  
2624.000000	98.642711  
2623.000000	98.663668  
2622.000000	98.690738  
2621.000000	98.714909  
2620.000000	98.728808  
2619.000000	98.732435  
2618.000000	98.730848  
2617.000000	98.729098  
2616.000000	98.728472  
2615.000000	98.724928  
2614.000000	98.712557  
2613.000000	98.692220  
2612.000000	98.675659  
2611.000000	98.676255  
2610.000000	98.695200  
2609.000000	98.720711  
2608.000000	98.740814  
2607.000000	98.751811  
2606.000000	98.753905  
2605.000000	98.746295  
2604.000000	98.731260  
2603.000000	98.717030  
2602.000000	98.709920  
2601.000000	98.707204  
2600.000000	98.704643  
2599.000000	98.708270  
2598.000000	98.729499  
2597.000000	98.767683  
2596.000000	98.806971  
2595.000000	98.835871  
2594.000000	98.863216  
2593.000000	98.906299  
2592.000000	98.965147  
2591.000000	99.017221  
2590.000000	99.040364  
2589.000000	99.035549  
2588.000000	99.022807  
2587.000000	99.018210  
2586.000000	99.020231  
2585.000000	99.017422  
2584.000000	99.003113  
2583.000000	98.979962  
2582.000000	98.954522  
2581.000000	98.932354  
2580.000000	98.917963  
2579.000000	98.915794  
2578.000000	98.928987  
2577.000000	98.956763  
2576.000000	98.992970  
2575.000000	99.028349  
2574.000000	99.056735  
2573.000000	99.080038  
2572.000000	99.105477  
2571.000000	99.137318  
2570.000000	99.173054  
2569.000000	99.206488  
2568.000000	99.229445  
2567.000000	99.230108  
2566.000000	99.198630  
2565.000000	99.141486  
2564.000000	99.084419  
2563.000000	99.051597  
2562.000000	99.044013  
2561.000000	99.047173  
2560.000000	99.057103  
2559.000000	99.084762  
2558.000000	99.131030  
2557.000000	99.171084  
2556.000000	99.175314  
2555.000000	99.140684  
2554.000000	99.092278  
2553.000000	99.057363  
2552.000000	99.046386  
2551.000000	99.055592  
2550.000000	99.075566  
2549.000000	99.094089  
2548.000000	99.100885  
2547.000000	99.097556  
2546.000000	99.099270  
2545.000000	99.120055  
2544.000000	99.156345  
2543.000000	99.188363  
2542.000000	99.197803  
2541.000000	99.182628  
2540.000000	99.156074  
2539.000000	99.134554  
2538.000000	99.127100  
2537.000000	99.133328  
2536.000000	99.147562  
2535.000000	99.162345  
2534.000000	99.168436  
2533.000000	99.156930  
2532.000000	99.129260  
2531.000000	99.106171  
2530.000000	99.117158  
2529.000000	99.170718  
2528.000000	99.237297  
2527.000000	99.272863  
2526.000000	99.262075  
2525.000000	99.228533  
2524.000000	99.199176  
2523.000000	99.173047  
2522.000000	99.137725  
2521.000000	99.104698  
2520.000000	99.105059  
2519.000000	99.147446  
2518.000000	99.200118  
2517.000000	99.225090  
2516.000000	99.217100  
2515.000000	99.197270  
2514.000000	99.179411  
2513.000000	99.159368  
2512.000000	99.132963  
2511.000000	99.106526  
2510.000000	99.086029  
2509.000000	99.068630  
2508.000000	99.052608  
2507.000000	99.048782  
2506.000000	99.073157  
2505.000000	99.127487  
2504.000000	99.191024  
2503.000000	99.235158  
2502.000000	99.248156  
2501.000000	99.243265  
2500.000000	99.238129  
2499.000000	99.229137  
2498.000000	99.197448  
2497.000000	99.143427  
2496.000000	99.099960  
2495.000000	99.097853  
2494.000000	99.126535  
2493.000000	99.146931  
2492.000000	99.142535  
2491.000000	99.139750  
2490.000000	99.171777  
2489.000000	99.235689  
2488.000000	99.293888  
2487.000000	99.310732  
2486.000000	99.281663  
2485.000000	99.234040  
2484.000000	99.206534  
2483.000000	99.221918  
2482.000000	99.271287  
2481.000000	99.324118  
2480.000000	99.356437  
2479.000000	99.368276  
2478.000000	99.374555  
2477.000000	99.385990  
2476.000000	99.402321  
2475.000000	99.418226  
2474.000000	99.429920  
2473.000000	99.437889  
2472.000000	99.446763  
2471.000000	99.461730  
2470.000000	99.484627  
2469.000000	99.515502  
2468.000000	99.556211  
2467.000000	99.606965  
2466.000000	99.659521  
2465.000000	99.700094  
2464.000000	99.720241  
2463.000000	99.719659  
2462.000000	99.699678  
2461.000000	99.663352  
2460.000000	99.622799  
2459.000000	99.594797  
2458.000000	99.583112  
2457.000000	99.573763  
2456.000000	99.555379  
2455.000000	99.538591  
2454.000000	99.547948  
2453.000000	99.597412  
2452.000000	99.677108  
2451.000000	99.758319  
2450.000000	99.808204  
2449.000000	99.809203  
2448.000000	99.773536  
2447.000000	99.734840  
2446.000000	99.718755  
2445.000000	99.724017  
2444.000000	99.734005  
2443.000000	99.738039  
2442.000000	99.734592  
2441.000000	99.723737  
2440.000000	99.709911  
2439.000000	99.707499  
2438.000000	99.729124  
2437.000000	99.767084  
2436.000000	99.797311  
2435.000000	99.805209  
2434.000000	99.800939  
2433.000000	99.807117  
2432.000000	99.836665  
2431.000000	99.883658  
2430.000000	99.930920  
2429.000000	99.965129  
2428.000000	99.986824  
2427.000000	100.004837 
2426.000000	100.021180 
2425.000000	100.028578 
2424.000000	100.026848 
2423.000000	100.031798 
2422.000000	100.056607 
2421.000000	100.089888 
2420.000000	100.105522 
2419.000000	100.093207 
2418.000000	100.067715 
2417.000000	100.048535 
2416.000000	100.042559 
2415.000000	100.047699 
2414.000000	100.059884 
2413.000000	100.071100 
2412.000000	100.071472 
2411.000000	100.060590 
2410.000000	100.050467 
2409.000000	100.053103 
2408.000000	100.070982 
2407.000000	100.100497 
2406.000000	100.134247 
2405.000000	100.157500 
2404.000000	100.156837 
2403.000000	100.141042 
2402.000000	100.141050 
2401.000000	100.176242 
2400.000000	100.228086 
2399.000000	100.259622 
2398.000000	100.255897 
2397.000000	100.233306 
2396.000000	100.214543 
2395.000000	100.209810 
2394.000000	100.220464 
2393.000000	100.242957 
2392.000000	100.264264 
2391.000000	100.267736 
2390.000000	100.252235 
2389.000000	100.237423 
2388.000000	100.243621 
2387.000000	100.272889 
2386.000000	100.314066 
2385.000000	100.357310 
2384.000000	100.396151 
2383.000000	100.423347 
2382.000000	100.436793 
2381.000000	100.446837 
2380.000000	100.464771 
2379.000000	100.481429 
2378.000000	100.469657 
2377.000000	100.416239 
2376.000000	100.341025 
2375.000000	100.276243 
2374.000000	100.238161 
2373.000000	100.235473 
2372.000000	100.297898 
2371.000000	100.466696 
2370.000000	100.740224 
2369.000000	101.039335 
2368.000000	101.246620 
2367.000000	101.289912 
2366.000000	101.190879 
2365.000000	101.036876 
2364.000000	100.898691 
2363.000000	100.775359 
2362.000000	100.641181 
2361.000000	100.522549 
2360.000000	100.492588 
2359.000000	100.580094 
2358.000000	100.701200 
2357.000000	100.741700 
2356.000000	100.682934 
2355.000000	100.607327 
2354.000000	100.600335 
2353.000000	100.674538 
2352.000000	100.792881 
2351.000000	100.898915 
2350.000000	100.940432 
2349.000000	100.903173 
2348.000000	100.822949 
2347.000000	100.775275 
2346.000000	100.796073 
2345.000000	100.852943 
2344.000000	100.908406 
2343.000000	100.943731 
2342.000000	100.929297 
2341.000000	100.834527 
2340.000000	100.699397 
2339.000000	100.597994 
2338.000000	100.563247 
2337.000000	100.581310 
2336.000000	100.638316 
2335.000000	100.718065 
2334.000000	100.776016 
2333.000000	100.767196 
2332.000000	100.713534 
2331.000000	100.685598 
2330.000000	100.714086 
2329.000000	100.769583 
2328.000000	100.807864 
2327.000000	100.831766 
2326.000000	100.847985 
2325.000000	100.847167 
2324.000000	100.814003 
2323.000000	100.758350 
2322.000000	100.716343 
2321.000000	100.707723 
2320.000000	100.732102 
2319.000000	100.776007 
2318.000000	100.825793 
2317.000000	100.859387 
2316.000000	100.855339 
2315.000000	100.813356 
2314.000000	100.760066 
2313.000000	100.736361 
2312.000000	100.764087 
2311.000000	100.831325 
2310.000000	100.892747 
2309.000000	100.907253 
2308.000000	100.868014 
2307.000000	100.810405 
2306.000000	100.773681 
2305.000000	100.769120 
2304.000000	100.779583 
2303.000000	100.789581 
2302.000000	100.798705 
2301.000000	100.810712 
2300.000000	100.818212 
2299.000000	100.812169 
2298.000000	100.793329 
2297.000000	100.772388 
2296.000000	100.755017 
2295.000000	100.742652 
2294.000000	100.737964 
2293.000000	100.747441 
2292.000000	100.768783 
2291.000000	100.786979 
2290.000000	100.783842 
2289.000000	100.753811 
2288.000000	100.706469 
2287.000000	100.655622 
2286.000000	100.607689 
2285.000000	100.559638 
2284.000000	100.506542 
2283.000000	100.450079 
2282.000000	100.401912 
2281.000000	100.377632 
2280.000000	100.387289 
2279.000000	100.428704 
2278.000000	100.488807 
2277.000000	100.550031 
2276.000000	100.599030 
2275.000000	100.630703 
2274.000000	100.643965 
2273.000000	100.637069 
2272.000000	100.612259 
2271.000000	100.586004 
2270.000000	100.583636 
2269.000000	100.613009 
2268.000000	100.646220 
2267.000000	100.640651 
2266.000000	100.583228 
2265.000000	100.505954 
2264.000000	100.452715 
2263.000000	100.440234 
2262.000000	100.457313 
2261.000000	100.491861 
2260.000000	100.543064 
2259.000000	100.607154 
2258.000000	100.664275 
2257.000000	100.686101 
2256.000000	100.656607 
2255.000000	100.585337 
2254.000000	100.505331 
2253.000000	100.456592 
2252.000000	100.463127 
2251.000000	100.519877 
2250.000000	100.599216 
2249.000000	100.668437 
2248.000000	100.701584 
2247.000000	100.685197 
2246.000000	100.627375 
2245.000000	100.565031 
2244.000000	100.548199 
2243.000000	100.601735 
2242.000000	100.699330 
2241.000000	100.780695 
2240.000000	100.800187 
2239.000000	100.760944 
2238.000000	100.704060 
2237.000000	100.669168 
2236.000000	100.667713 
2235.000000	100.689951 
2234.000000	100.725432 
2233.000000	100.767773 
2232.000000	100.807639 
2231.000000	100.835338 
2230.000000	100.848454 
2229.000000	100.842903 
2228.000000	100.800387 
2227.000000	100.708917 
2226.000000	100.601441 
2225.000000	100.544153 
2224.000000	100.564551 
2223.000000	100.613537 
2222.000000	100.625579 
2221.000000	100.599657 
2220.000000	100.587211 
2219.000000	100.609008 
2218.000000	100.623744 
2217.000000	100.585648 
2216.000000	100.502524 
2215.000000	100.425101 
2214.000000	100.402140 
2213.000000	100.452414 
2212.000000	100.553960 
2211.000000	100.647982 
2210.000000	100.674678 
2209.000000	100.624615 
2208.000000	100.547316 
2207.000000	100.503827 
2206.000000	100.522478 
2205.000000	100.594378 
2204.000000	100.684080 
2203.000000	100.739542 
2202.000000	100.721100 
2201.000000	100.640568 
2200.000000	100.556610 
2199.000000	100.520688 
2198.000000	100.540305 
2197.000000	100.590760 
2196.000000	100.635614 
2195.000000	100.636689 
2194.000000	100.583109 
2193.000000	100.524068 
2192.000000	100.533075 
2191.000000	100.616942 
2190.000000	100.693958 
2189.000000	100.688979 
2188.000000	100.618120 
2187.000000	100.547327 
2186.000000	100.504039 
2185.000000	100.473961 
2184.000000	100.455700 
2183.000000	100.463964 
2182.000000	100.488265 
2181.000000	100.498714 
2180.000000	100.494829 
2179.000000	100.510488 
2178.000000	100.568894 
2177.000000	100.658525 
2176.000000	100.746915 
2175.000000	100.795080 
2174.000000	100.773656 
2173.000000	100.697090 
2172.000000	100.627242 
2171.000000	100.609140 
2170.000000	100.616326 
2169.000000	100.593599 
2168.000000	100.539429 
2167.000000	100.500035 
2166.000000	100.489412 
2165.000000	100.473540 
2164.000000	100.444809 
2163.000000	100.454085 
2162.000000	100.540363 
2161.000000	100.670969 
2160.000000	100.782082 
2159.000000	100.842125 
2158.000000	100.841368 
2157.000000	100.765948 
2156.000000	100.627525 
2155.000000	100.482923 
2154.000000	100.389100 
2153.000000	100.354811 
2152.000000	100.355194 
2151.000000	100.376635 
2150.000000	100.421607 
2149.000000	100.481224 
2148.000000	100.531942 
2147.000000	100.557750 
2146.000000	100.554431 
2145.000000	100.514293 
2144.000000	100.431718 
2143.000000	100.332366 
2142.000000	100.277320 
2141.000000	100.316043 
2140.000000	100.434069 
2139.000000	100.559598 
2138.000000	100.623989 
2137.000000	100.609952 
2136.000000	100.545686 
2135.000000	100.472156 
2134.000000	100.426460 
2133.000000	100.433344 
2132.000000	100.484139 
2131.000000	100.530919 
2130.000000	100.528934 
2129.000000	100.491313 
2128.000000	100.480498 
2127.000000	100.534408 
2126.000000	100.618108 
2125.000000	100.661758 
2124.000000	100.634325 
2123.000000	100.565485 
2122.000000	100.505856 
2121.000000	100.482442 
2120.000000	100.485833 
2119.000000	100.484421 
2118.000000	100.452340 
2117.000000	100.396579 
2116.000000	100.356257 
2115.000000	100.363783 
2114.000000	100.407152 
2113.000000	100.442077 
2112.000000	100.443470 
2111.000000	100.432375 
2110.000000	100.445152 
2109.000000	100.485617 
2108.000000	100.519476 
2107.000000	100.516479 
2106.000000	100.488892 
2105.000000	100.479846 
2104.000000	100.513682 
2103.000000	100.567572 
2102.000000	100.599329 
2101.000000	100.596132 
2100.000000	100.583898 
2099.000000	100.593038 
2098.000000	100.630658 
2097.000000	100.682939 
2096.000000	100.725697 
2095.000000	100.732430 
2094.000000	100.695018 
2093.000000	100.643123 
2092.000000	100.619974 
2091.000000	100.629130 
2090.000000	100.626421 
2089.000000	100.578628 
2088.000000	100.510322 
2087.000000	100.472502 
2086.000000	100.481200 
2085.000000	100.509302 
2084.000000	100.527240 
2083.000000	100.527932 
2082.000000	100.517661 
2081.000000	100.506359 
2080.000000	100.505726 
2079.000000	100.516838 
2078.000000	100.519564 
2077.000000	100.491134 
2076.000000	100.435958 
2075.000000	100.383146 
2074.000000	100.356563 
2073.000000	100.361017 
2072.000000	100.392314 
2071.000000	100.443774 
2070.000000	100.502243 
2069.000000	100.551812 
2068.000000	100.584937 
2067.000000	100.602609 
2066.000000	100.607390 
2065.000000	100.603560 
2064.000000	100.596154 
2063.000000	100.581698 
2062.000000	100.550573 
2061.000000	100.506510 
2060.000000	100.468235 
2059.000000	100.441091 
2058.000000	100.407669 
2057.000000	100.362906 
2056.000000	100.334960 
2055.000000	100.345448 
2054.000000	100.368136 
2053.000000	100.361494 
2052.000000	100.332097 
2051.000000	100.332294 
2050.000000	100.396465 
2049.000000	100.502494 
2048.000000	100.597958 
2047.000000	100.643444 
2046.000000	100.629170 
2045.000000	100.578124 
2044.000000	100.534228 
2043.000000	100.522231 
2042.000000	100.523836 
2041.000000	100.512916 
2040.000000	100.496007 
2039.000000	100.487830 
2038.000000	100.472895 
2037.000000	100.440593 
2036.000000	100.439769 
2035.000000	100.532255 
2034.000000	100.686249 
2033.000000	100.777489 
2032.000000	100.719284 
2031.000000	100.544926 
2030.000000	100.355552 
2029.000000	100.240950 
2028.000000	100.248388 
2027.000000	100.365697 
2026.000000	100.509575 
2025.000000	100.577216 
2024.000000	100.543088 
2023.000000	100.475197 
2022.000000	100.445817 
2021.000000	100.465147 
2020.000000	100.512534 
2019.000000	100.582826 
2018.000000	100.667724 
2017.000000	100.726193 
2016.000000	100.717920 
2015.000000	100.652131 
2014.000000	100.574400 
2013.000000	100.517205 
2012.000000	100.482795 
2011.000000	100.466278 
2010.000000	100.475008 
2009.000000	100.517304 
2008.000000	100.578034 
2007.000000	100.618642 
2006.000000	100.615051 
2005.000000	100.593525 
2004.000000	100.605575 
2003.000000	100.662053 
2002.000000	100.717711 
2001.000000	100.733712 
2000.000000	100.731960 
1999.000000	100.757435 
1998.000000	100.808629 
1997.000000	100.843561 
1996.000000	100.841396 
1995.000000	100.817744 
1994.000000	100.780833 
1993.000000	100.712531 
1992.000000	100.603346 
1991.000000	100.477568 
1990.000000	100.370065 
1989.000000	100.300390 
1988.000000	100.275254 
1987.000000	100.295597 
1986.000000	100.355458 
1985.000000	100.447239 
1984.000000	100.567386 
1983.000000	100.701976 
1982.000000	100.810519 
1981.000000	100.844661 
1980.000000	100.788473 
1979.000000	100.669128 
1978.000000	100.541136 
1977.000000	100.471947 
1976.000000	100.510611 
1975.000000	100.639185 
1974.000000	100.771072 
1973.000000	100.831438 
1972.000000	100.830859 
1971.000000	100.828627 
1970.000000	100.843055 
1969.000000	100.839447 
1968.000000	100.793154 
1967.000000	100.719978 
1966.000000	100.642121 
1965.000000	100.564678 
1964.000000	100.492936 
1963.000000	100.440388 
1962.000000	100.412194 
1961.000000	100.403954 
1960.000000	100.419894 
1959.000000	100.469737 
1958.000000	100.544916 
1957.000000	100.617557 
1956.000000	100.665631 
1955.000000	100.683997 
1954.000000	100.674561 
1953.000000	100.644422 
1952.000000	100.610372 
1951.000000	100.591841 
1950.000000	100.597755 
1949.000000	100.624353 
1948.000000	100.657987 
1947.000000	100.669988 
1946.000000	100.627567 
1945.000000	100.531670 
1944.000000	100.433999 
1943.000000	100.395046 
1942.000000	100.426505 
1941.000000	100.491168 
1940.000000	100.548796 
1939.000000	100.578263 
1938.000000	100.572574 
1937.000000	100.544133 
1936.000000	100.523828 
1935.000000	100.527816 
1934.000000	100.533678 
1933.000000	100.510795 
1932.000000	100.461387 
1931.000000	100.410967 
1930.000000	100.369397 
1929.000000	100.332382 
1928.000000	100.315248 
1927.000000	100.345691 
1926.000000	100.426504 
1925.000000	100.525326 
1924.000000	100.605234 
1923.000000	100.648210 
1922.000000	100.649799 
1921.000000	100.619465 
1920.000000	100.584851 
1919.000000	100.572655 
1918.000000	100.577794 
1917.000000	100.573027 
1916.000000	100.552018 
1915.000000	100.532956 
1914.000000	100.524909 
1913.000000	100.519117 
1912.000000	100.510347 
1911.000000	100.504162 
1910.000000	100.494704 
1909.000000	100.464587 
1908.000000	100.418364 
1907.000000	100.386295 
1906.000000	100.389347 
1905.000000	100.413860 
1904.000000	100.432549 
1903.000000	100.436525 
1902.000000	100.431520 
1901.000000	100.423527 
1900.000000	100.415828 
1899.000000	100.406132 
1898.000000	100.387083 
1897.000000	100.358473 
1896.000000	100.338746 
1895.000000	100.349301 
1894.000000	100.382947 
1893.000000	100.408759 
1892.000000	100.407522 
1891.000000	100.383195 
1890.000000	100.343277 
1889.000000	100.293053 
1888.000000	100.248635 
1887.000000	100.229659 
1886.000000	100.236921 
1885.000000	100.252913 
1884.000000	100.265620 
1883.000000	100.278860 
1882.000000	100.294106 
1881.000000	100.303161 
1880.000000	100.304419 
1879.000000	100.304160 
1878.000000	100.302141 
1877.000000	100.293267 
1876.000000	100.284237 
1875.000000	100.292204 
1874.000000	100.318640 
1873.000000	100.342588 
1872.000000	100.349284 
1871.000000	100.345556 
1870.000000	100.337098 
1869.000000	100.311780 
1868.000000	100.267759 
1867.000000	100.231729 
1866.000000	100.226272 
1865.000000	100.244602 
1864.000000	100.264280 
1863.000000	100.271432 
1862.000000	100.266960 
1861.000000	100.256297 
1860.000000	100.241708 
1859.000000	100.220605 
1858.000000	100.188281 
1857.000000	100.147501 
1856.000000	100.113635 
1855.000000	100.102299 
1854.000000	100.112254 
1853.000000	100.127765 
1852.000000	100.138117 
1851.000000	100.135329 
1850.000000	100.108578 
1849.000000	100.059213 
1848.000000	100.010660 
1847.000000	99.989650  
1846.000000	99.998915  
1845.000000	100.018879 
1844.000000	100.033475 
1843.000000	100.041543 
1842.000000	100.035162 
1841.000000	100.007745 
1840.000000	99.980191  
1839.000000	99.979407  
1838.000000	100.000849 
1837.000000	100.008690 
1836.000000	99.982797  
1835.000000	99.943777  
1834.000000	99.918917  
1833.000000	99.912252  
1832.000000	99.914835  
1831.000000	99.918548  
1830.000000	99.916427  
1829.000000	99.905303  
1828.000000	99.889243  
1827.000000	99.879089  
1826.000000	99.885673  
1825.000000	99.905138  
1824.000000	99.919516  
1823.000000	99.916022  
1822.000000	99.893959  
1821.000000	99.862908  
1820.000000	99.839762  
1819.000000	99.838276  
1818.000000	99.855544  
1817.000000	99.868155  
1816.000000	99.857392  
1815.000000	99.829819  
1814.000000	99.800408  
1813.000000	99.775413  
1812.000000	99.753024  
1811.000000	99.735226  
1810.000000	99.725711  
1809.000000	99.718074  
1808.000000	99.706966  
1807.000000	99.696464  
1806.000000	99.687244  
1805.000000	99.670723  
1804.000000	99.645299  
1803.000000	99.624986  
1802.000000	99.617994  
1801.000000	99.615008  
1800.000000	99.602837  
1799.000000	99.584055  
1798.000000	99.567163  
1797.000000	99.546218  
1796.000000	99.510222  
1795.000000	99.457474  
1794.000000	99.396611  
1793.000000	99.345355  
1792.000000	99.324812  
1791.000000	99.338834  
1790.000000	99.358684  
1789.000000	99.354651  
1788.000000	99.333140  
1787.000000	99.319148  
1786.000000	99.315326  
1785.000000	99.293129  
1784.000000	99.235172  
1783.000000	99.161044  
1782.000000	99.095724  
1781.000000	99.050011  
1780.000000	99.019844  
1779.000000	98.995667  
1778.000000	98.966098  
1777.000000	98.918330  
1776.000000	98.855639  
1775.000000	98.794217  
1774.000000	98.746834  
1773.000000	98.708565  
1772.000000	98.666085  
1771.000000	98.619656  
1770.000000	98.570842  
1769.000000	98.509713  
1768.000000	98.429914  
1767.000000	98.338032  
1766.000000	98.244762  
1765.000000	98.154738  
1764.000000	98.065917  
1763.000000	97.973200  
1762.000000	97.870616  
1761.000000	97.762218  
1760.000000	97.653282  
1759.000000	97.539236  
1758.000000	97.401950  
1757.000000	97.220744  
1756.000000	97.002925  
1755.000000	96.774559  
1754.000000	96.546006  
1753.000000	96.304541  
1752.000000	96.031478  
1751.000000	95.720135  
1750.000000	95.380545  
1749.000000	95.020043  
1748.000000	94.653263  
1747.000000	94.309656  
1746.000000	94.009411  
1745.000000	93.763321  
1744.000000	93.581042  
1743.000000	93.471143  
1742.000000	93.432477  
1741.000000	93.458097  
1740.000000	93.546512  
1739.000000	93.693091  
1738.000000	93.875385  
1737.000000	94.077741  
1736.000000	94.328256  
1735.000000	94.662754  
1734.000000	95.027953  
1733.000000	95.324394  
1732.000000	95.518729  
1731.000000	95.638708  
1730.000000	95.725107  
1729.000000	95.797595  
1728.000000	95.862171  
1727.000000	95.926715  
1726.000000	96.001395  
1725.000000	96.093811  
1724.000000	96.193300  
1723.000000	96.283442  
1722.000000	96.358694  
1721.000000	96.425823  
1720.000000	96.503766  
1719.000000	96.613897  
1718.000000	96.757203  
1717.000000	96.905100  
1716.000000	97.031430  
1715.000000	97.136055  
1714.000000	97.230244  
1713.000000	97.314076  
1712.000000	97.382113  
1711.000000	97.439364  
1710.000000	97.494367  
1709.000000	97.551050  
1708.000000	97.610491  
1707.000000	97.669475  
1706.000000	97.719333  
1705.000000	97.749569  
1704.000000	97.767645  
1703.000000	97.790909  
1702.000000	97.842091  
1701.000000	97.920317  
1700.000000	97.991228  
1699.000000	98.053420  
1698.000000	98.102949  
1697.000000	98.129492  
1696.000000	98.144198  
1695.000000	98.159735  
1694.000000	98.170486  
1693.000000	98.154898  
1692.000000	98.123283  
1691.000000	98.105043  
1690.000000	98.105862  
1689.000000	98.110624  
1688.000000	98.113608  
1687.000000	98.117100  
1686.000000	98.127369  
1685.000000	98.125144  
1684.000000	98.092108  
1683.000000	98.067898  
1682.000000	98.052368  
1681.000000	98.016174  
1680.000000	97.972584  
1679.000000	97.936850  
1678.000000	97.909418  
1677.000000	97.886687  
1676.000000	97.861931  
1675.000000	97.827589  
1674.000000	97.787704  
1673.000000	97.751124  
1672.000000	97.720247  
1671.000000	97.698878  
1670.000000	97.678914  
1669.000000	97.656388  
1668.000000	97.643502  
1667.000000	97.634390  
1666.000000	97.616552  
1665.000000	97.594032  
1664.000000	97.578061  
1663.000000	97.571801  
1662.000000	97.563362  
1661.000000	97.547668  
1660.000000	97.533059  
1659.000000	97.526920  
1658.000000	97.524020  
1657.000000	97.517351  
1656.000000	97.505893  
1655.000000	97.495506  
1654.000000	97.480516  
1653.000000	97.458247  
1652.000000	97.492696  
1651.000000	97.552763  
1650.000000	97.561070  
1649.000000	97.547877  
1648.000000	97.556504  
1647.000000	97.591480  
1646.000000	97.640208  
1645.000000	97.689180  
1644.000000	97.723629  
1643.000000	97.748072  
1642.000000	97.771338  
1641.000000	97.792774  
1640.000000	97.810145  
1639.000000	97.822084  
1638.000000	97.829358  
1637.000000	97.832313  
1636.000000	97.838308  
1635.000000	97.867365  
1634.000000	97.922064  
1633.000000	97.964968  
1632.000000	97.980372  
1631.000000	97.988696  
1630.000000	98.002589  
1629.000000	98.023774  
1628.000000	98.054846  
1627.000000	98.096476  
1626.000000	98.134369  
1625.000000	98.156986  
1624.000000	98.172357  
1623.000000	98.197556  
1622.000000	98.233587  
1621.000000	98.263834  
1620.000000	98.279553  
1619.000000	98.287997  
1618.000000	98.295981  
1617.000000	98.299656  
1616.000000	98.311721  
1615.000000	98.340817  
1614.000000	98.364412  
1613.000000	98.371750  
1612.000000	98.377849  
1611.000000	98.394649  
1610.000000	98.414513  
1609.000000	98.426705  
1608.000000	98.434969  
1607.000000	98.448886  
1606.000000	98.468165  
1605.000000	98.490131  
1604.000000	98.513490  
1603.000000	98.531125  
1602.000000	98.538067  
1601.000000	98.539421  
1600.000000	98.544116  
1599.000000	98.551362  
1598.000000	98.553277  
1597.000000	98.549199  
1596.000000	98.546249  
1595.000000	98.547818  
1594.000000	98.549097  
1593.000000	98.547020  
1592.000000	98.545079  
1591.000000	98.545383  
1590.000000	98.545579  
1589.000000	98.547261  
1588.000000	98.556016  
1587.000000	98.569401  
1586.000000	98.575847  
1585.000000	98.570640  
1584.000000	98.566007  
1583.000000	98.568060  
1582.000000	98.568199  
1581.000000	98.560095  
1580.000000	98.544956  
1579.000000	98.519749  
1578.000000	98.482756  
1577.000000	98.450343  
1576.000000	98.451754  
1575.000000	98.490924  
1574.000000	98.522526  
1573.000000	98.518194  
1572.000000	98.497356  
1571.000000	98.480209  
1570.000000	98.459967  
1569.000000	98.435515  
1568.000000	98.424968  
1567.000000	98.421582  
1566.000000	98.406935  
1565.000000	98.380094  
1564.000000	98.354728  
1563.000000	98.335771  
1562.000000	98.320564  
1561.000000	98.317678  
1560.000000	98.346953  
1559.000000	98.358908  
1558.000000	98.346076  
1557.000000	98.346537  
1556.000000	98.341844  
1555.000000	98.335904  
1554.000000	98.328466  
1553.000000	98.313956  
1552.000000	98.301769  
1551.000000	98.293620  
1550.000000	98.277823  
1549.000000	98.240093  
1548.000000	98.195640  
1547.000000	98.169916  
1546.000000	98.165280  
1545.000000	98.159051  
1544.000000	98.130118  
1543.000000	98.077424  
1542.000000	98.010495  
1541.000000	97.928534  
1540.000000	97.840639  
1539.000000	97.791066  
1538.000000	97.775948  
1537.000000	97.744557  
1536.000000	97.695647  
1535.000000	97.657960  
1534.000000	97.627283  
1533.000000	97.585096  
1532.000000	97.531520  
1531.000000	97.472042  
1530.000000	97.411553  
1529.000000	97.356716  
1528.000000	97.311813  
1527.000000	97.268932  
1526.000000	97.206057  
1525.000000	97.117376  
1524.000000	97.022916  
1523.000000	96.943058  
1522.000000	96.873435  
1521.000000	96.805593  
1520.000000	96.748855  
1519.000000	96.693124  
1518.000000	96.616481  
1517.000000	96.517015  
1516.000000	96.416560  
1515.000000	96.334268  
1514.000000	96.256988  
1513.000000	96.169058  
1512.000000	96.072567  
1511.000000	95.978619  
1510.000000	95.885040  
1509.000000	95.765836  
1508.000000	95.577462  
1507.000000	95.279083  
1506.000000	94.927253  
1505.000000	94.617364  
1504.000000	94.338266  
1503.000000	94.037294  
1502.000000	93.677301  
1501.000000	93.227666  
1500.000000	92.682519  
1499.000000	92.046423  
1498.000000	91.305110  
1497.000000	90.455850  
1496.000000	89.586666  
1495.000000	88.826529  
1494.000000	88.213799  
1493.000000	87.720912  
1492.000000	87.329670  
1491.000000	87.024156  
1490.000000	86.766876  
1489.000000	86.514478  
1488.000000	86.239335  
1487.000000	85.928580  
1486.000000	85.578908  
1485.000000	85.201282  
1484.000000	84.817321  
1483.000000	84.430647  
1482.000000	84.042664  
1481.000000	83.683409  
1480.000000	83.392226  
1479.000000	83.177382  
1478.000000	83.024430  
1477.000000	82.929706  
1476.000000	82.896670  
1475.000000	82.912410  
1474.000000	82.941339  
1473.000000	82.954012  
1472.000000	82.945381  
1471.000000	82.921878  
1470.000000	82.886662  
1469.000000	82.850696  
1468.000000	82.830940  
1467.000000	82.830998  
1466.000000	82.837418  
1465.000000	82.840545  
1464.000000	82.847716  
1463.000000	82.862385  
1462.000000	82.880657  
1461.000000	82.905536  
1460.000000	82.945807  
1459.000000	83.000054  
1458.000000	83.059921  
1457.000000	83.134345  
1456.000000	83.239888  
1455.000000	83.351926  
1454.000000	83.442650  
1453.000000	83.526442  
1452.000000	83.616578  
1451.000000	83.704328  
1450.000000	83.780193  
1449.000000	83.848004  
1448.000000	83.913349  
1447.000000	83.975989  
1446.000000	84.032846  
1445.000000	84.089151  
1444.000000	84.146376  
1443.000000	84.190395  
1442.000000	84.205840  
1441.000000	84.191859  
1440.000000	84.162185  
1439.000000	84.127856  
1438.000000	84.090480  
1437.000000	84.042005  
1436.000000	83.984570  
1435.000000	83.932983  
1434.000000	83.898718  
1433.000000	83.890740  
1432.000000	83.908285  
1431.000000	83.928964  
1430.000000	83.924786  
1429.000000	83.885176  
1428.000000	83.816167  
1427.000000	83.724940  
1426.000000	83.607203  
1425.000000	83.463530  
1424.000000	83.312203  
1423.000000	83.178353  
1422.000000	83.072322  
1421.000000	82.983137  
1420.000000	82.889624  
1419.000000	82.780337  
1418.000000	82.676568  
1417.000000	82.604097  
1416.000000	82.568656  
1415.000000	82.566866  
1414.000000	82.591920  
1413.000000	82.639160  
1412.000000	82.701166  
1411.000000	82.760225  
1410.000000	82.803534  
1409.000000	82.840020  
1408.000000	82.888560  
1407.000000	82.954166  
1406.000000	83.020421  
1405.000000	83.075503  
1404.000000	83.126838  
1403.000000	83.183574  
1402.000000	83.247680  
1401.000000	83.322241  
1400.000000	83.411020  
1399.000000	83.505075  
1398.000000	83.590418  
1397.000000	83.667802  
1396.000000	83.751857  
1395.000000	83.849419  
1394.000000	83.949677  
1393.000000	84.042653  
1392.000000	84.126661  
1391.000000	84.203189  
1390.000000	84.275875  
1389.000000	84.349644  
1388.000000	84.424218  
1387.000000	84.490177  
1386.000000	84.538643  
1385.000000	84.572615  
1384.000000	84.599552  
1383.000000	84.618496  
1382.000000	84.625975  
1381.000000	84.626946  
1380.000000	84.633299  
1379.000000	84.652059  
1378.000000	84.682651  
1377.000000	84.723792  
1376.000000	84.773889  
1375.000000	84.825279  
1374.000000	84.869056  
1373.000000	84.908212  
1372.000000	84.952053  
1371.000000	85.004565  
1370.000000	85.063731  
1369.000000	85.126606  
1368.000000	85.187710  
1367.000000	85.241870  
1366.000000	85.298585  
1365.000000	85.382236  
1364.000000	85.505270  
1363.000000	85.643028  
1362.000000	85.753829  
1361.000000	85.823962  
1360.000000	85.868603  
1359.000000	85.897326  
1358.000000	85.905649  
1357.000000	85.894984  
1356.000000	85.879511  
1355.000000	85.871381  
1354.000000	85.873101  
1353.000000	85.885191  
1352.000000	85.908374  
1351.000000	85.939774  
1350.000000	85.975354  
1349.000000	86.021895  
1348.000000	86.091836  
1347.000000	86.184641  
1346.000000	86.284981  
1345.000000	86.378956  
1344.000000	86.463342  
1343.000000	86.539792  
1342.000000	86.611346  
1341.000000	86.683901  
1340.000000	86.759207  
1339.000000	86.825185  
1338.000000	86.867154  
1337.000000	86.888748  
1336.000000	86.907868  
1335.000000	86.934102  
1334.000000	86.961647  
1333.000000	86.982242  
1332.000000	86.993584  
1331.000000	86.994770  
1330.000000	86.984888  
1329.000000	86.969669  
1328.000000	86.960568  
1327.000000	86.963905  
1326.000000	86.975772  
1325.000000	86.988972  
1324.000000	86.997979  
1323.000000	86.998865  
1322.000000	86.994318  
1321.000000	86.997640  
1320.000000	87.021271  
1319.000000	87.059578  
1318.000000	87.094086  
1317.000000	87.118586  
1316.000000	87.147307  
1315.000000	87.194594  
1314.000000	87.258085  
1313.000000	87.327186  
1312.000000	87.398306  
1311.000000	87.472924  
1310.000000	87.546471  
1309.000000	87.608798  
1308.000000	87.654978  
1307.000000	87.691155  
1306.000000	87.728178  
1305.000000	87.771555  
1304.000000	87.816597  
1303.000000	87.852854  
1302.000000	87.874717  
1301.000000	87.886967  
1300.000000	87.898203  
1299.000000	87.910225  
1298.000000	87.916713  
1297.000000	87.910735  
1296.000000	87.890216  
1295.000000	87.856572  
1294.000000	87.811616  
1293.000000	87.756118  
1292.000000	87.689188  
1291.000000	87.608762  
1290.000000	87.513063  
1289.000000	87.400472  
1288.000000	87.268617  
1287.000000	87.117923  
1286.000000	86.957441  
1285.000000	86.801991  
1284.000000	86.659519  
1283.000000	86.524569  
1282.000000	86.388952  
1281.000000	86.255956  
1280.000000	86.136921  
1279.000000	86.033133  
1278.000000	85.928640  
1277.000000	85.804660  
1276.000000	85.656918  
1275.000000	85.495890  
1274.000000	85.333820  
1273.000000	85.175513  
1272.000000	85.019583  
1271.000000	84.863588  
1270.000000	84.706158  
1269.000000	84.546337  
1268.000000	84.383503  
1267.000000	84.218819  
1266.000000	84.056047  
1265.000000	83.898972  
1264.000000	83.747398  
1263.000000	83.597144  
1262.000000	83.444403  
1261.000000	83.288019  
1260.000000	83.127795  
1259.000000	82.965276  
1258.000000	82.808881  
1257.000000	82.672453  
1256.000000	82.562532  
1255.000000	82.469403  
1254.000000	82.375645  
1253.000000	82.270331  
1252.000000	82.149777  
1251.000000	82.011899  
1250.000000	81.861950  
1249.000000	81.719889  
1248.000000	81.607492  
1247.000000	81.526076  
1246.000000	81.457683  
1245.000000	81.388320  
1244.000000	81.316928  
1243.000000	81.240663  
1242.000000	81.148406  
1241.000000	81.035947  
1240.000000	80.913913  
1239.000000	80.792443  
1238.000000	80.669611  
1237.000000	80.543504  
1236.000000	80.424035  
1235.000000	80.321189  
1234.000000	80.229561  
1233.000000	80.135803  
1232.000000	80.035994  
1231.000000	79.937024  
1230.000000	79.846589  
1229.000000	79.769432  
1228.000000	79.707348  
1227.000000	79.655514  
1226.000000	79.604392  
1225.000000	79.550112  
1224.000000	79.493693  
1223.000000	79.423658  
1222.000000	79.311304  
1221.000000	79.135800  
1220.000000	78.909893  
1219.000000	78.674483  
1218.000000	78.472917  
1217.000000	78.332531  
1216.000000	78.257208  
1215.000000	78.224804  
1214.000000	78.199518  
1213.000000	78.158900  
1212.000000	78.104388  
1211.000000	78.042055  
1210.000000	77.968161  
1209.000000	77.884547  
1208.000000	77.813103  
1207.000000	77.778061  
1206.000000	77.782792  
1205.000000	77.818273  
1204.000000	77.884556  
1203.000000	77.988062  
1202.000000	78.126483  
1201.000000	78.292929  
1200.000000	78.488889  
1199.000000	78.719299  
1198.000000	78.981460  
1197.000000	79.270785  
1196.000000	79.588966  
1195.000000	79.934679  
1194.000000	80.296177  
1193.000000	80.666116  
1192.000000	81.053889  
1191.000000	81.469284  
1190.000000	81.901857  
1189.000000	82.329273  
1188.000000	82.738350  
1187.000000	83.126069  
1186.000000	83.488429  
1185.000000	83.822325  
1184.000000	84.134153  
1183.000000	84.435201  
1182.000000	84.730774  
1181.000000	85.020828  
1180.000000	85.305833  
1179.000000	85.583179  
1178.000000	85.842658  
1177.000000	86.075749  
1176.000000	86.288485  
1175.000000	86.498429  
1174.000000	86.719161  
1173.000000	86.951931  
1172.000000	87.190765  
1171.000000	87.430468  
1170.000000	87.669309  
1169.000000	87.906682  
1168.000000	88.139618  
1167.000000	88.363405  
1166.000000	88.576774  
1165.000000	88.782635  
1164.000000	88.979817  
1163.000000	89.158846  
1162.000000	89.312994  
1161.000000	89.450171  
1160.000000	89.585907  
1159.000000	89.726787  
1158.000000	89.868382  
1157.000000	90.005860  
1156.000000	90.135684  
1155.000000	90.248754  
1154.000000	90.335349  
1153.000000	90.399780  
1152.000000	90.459112  
1151.000000	90.522555  
1150.000000	90.579903  
1149.000000	90.614346  
1148.000000	90.618853  
1147.000000	90.594399  
1146.000000	90.538777  
1145.000000	90.445596  
1144.000000	90.313219  
1143.000000	90.148098  
1142.000000	89.956809  
1141.000000	89.738081  
1140.000000	89.486340  
1139.000000	89.202445  
1138.000000	88.896740  
1137.000000	88.579308  
1136.000000	88.249875  
1135.000000	87.900374  
1134.000000	87.525360  
1133.000000	87.124362  
1132.000000	86.692763  
1131.000000	86.216129  
1130.000000	85.679123  
1129.000000	85.078331  
1128.000000	84.420817  
1127.000000	83.709991  
1126.000000	82.939399  
1125.000000	82.104822  
1124.000000	81.218121  
1123.000000	80.302419  
1122.000000	79.375631  
1121.000000	78.446428  
1120.000000	77.524609  
1119.000000	76.624356  
1118.000000	75.756650  
1117.000000	74.930894  
1116.000000	74.167128  
1115.000000	73.495508  
1114.000000	72.940351  
1113.000000	72.512502  
1112.000000	72.213402  
1111.000000	72.032904  
1110.000000	71.947764  
1109.000000	71.939835  
1108.000000	72.013585  
1107.000000	72.180844  
1106.000000	72.431240  
1105.000000	72.730854  
1104.000000	73.044361  
1103.000000	73.346374  
1102.000000	73.620702  
1101.000000	73.863494  
1100.000000	74.079990  
1099.000000	74.264676  
1098.000000	74.390840  
1097.000000	74.430745  
1096.000000	74.378650  
1095.000000	74.245478  
1094.000000	74.044136  
1093.000000	73.795167  
1092.000000	73.535743  
1091.000000	73.301858  
1090.000000	73.103135  
1089.000000	72.929996  
1088.000000	72.781645  
1087.000000	72.672786  
1086.000000	72.619261  
1085.000000	72.632265  
1084.000000	72.718191  
1083.000000	72.865645  
1082.000000	73.039583  
1081.000000	73.207183  
1080.000000	73.364242  
1079.000000	73.520472  
1078.000000	73.666764  
1077.000000	73.774211  
1076.000000	73.818877  
1075.000000	73.791412  
1074.000000	73.689515  
1073.000000	73.517370  
1072.000000	73.285621  
1071.000000	72.994790  
1070.000000	72.624019  
1069.000000	72.152042  
1068.000000	71.582116  
1067.000000	70.928227  
1066.000000	70.184813  
1065.000000	69.334858  
1064.000000	68.387558  
1063.000000	67.384784  
1062.000000	66.366943  
1061.000000	65.352507  
1060.000000	64.351695  
1059.000000	63.374797  
1058.000000	62.420901  
1057.000000	61.479663  
1056.000000	60.547899  
1055.000000	59.624632  
1054.000000	58.691930  
1053.000000	57.729237  
1052.000000	56.750950  
1051.000000	55.798488  
1050.000000	54.888329  
1049.000000	54.005436  
1048.000000	53.153122  
1047.000000	52.363629  
1046.000000	51.652921  
1045.000000	51.004592  
1044.000000	50.399905  
1043.000000	49.830649  
1042.000000	49.283064  
1041.000000	48.738902  
1040.000000	48.192550  
1039.000000	47.640854  
1038.000000	47.060071  
1037.000000	46.421783  
1036.000000	45.727053  
1035.000000	44.995169  
1034.000000	44.225086  
1033.000000	43.400951  
1032.000000	42.530168  
1031.000000	41.641262  
1030.000000	40.749268  
1029.000000	39.859830  
1028.000000	39.001821  
1027.000000	38.215817  
1026.000000	37.514731  
1025.000000	36.897378  
1024.000000	36.395203  
1023.000000	36.059968  
1022.000000	35.909437  
1021.000000	35.931885  
1020.000000	36.138987  
1019.000000	36.562904  
1018.000000	37.202177  
1017.000000	38.018383  
1016.000000	38.981755  
1015.000000	40.070428  
1014.000000	41.227547  
1013.000000	42.368731  
1012.000000	43.437978  
1011.000000	44.422725  
1010.000000	45.319175  
1009.000000	46.121025  
1008.000000	46.841991  
1007.000000	47.514783  
1006.000000	48.163537  
1005.000000	48.800745  
1004.000000	49.445777  
1003.000000	50.118083  
1002.000000	50.815621  
1001.000000	51.525950  
1000.000000	52.252994  
999.000000	 53.008337  
998.000000	 53.785923  
997.000000	 54.573662  
996.000000	 55.382129  
995.000000	 56.233519  
994.000000	 57.129055  
993.000000	 58.054752  
992.000000	 59.012038  
991.000000	 60.013408  
990.000000	 61.051218  
989.000000	 62.096993  
988.000000	 63.129419  
987.000000	 64.139973  
986.000000	 65.113066  
985.000000	 66.021530  
984.000000	 66.842264  
983.000000	 67.562869  
982.000000	 68.176800  
981.000000	 68.685617  
980.000000	 69.102827  
979.000000	 69.444207  
978.000000	 69.717974  
977.000000	 69.933460  
976.000000	 70.113554  
975.000000	 70.289686  
974.000000	 70.492670  
973.000000	 70.757900  
972.000000	 71.125697  
971.000000	 71.615241  
970.000000	 72.199169  
969.000000	 72.813944  
968.000000	 73.385472  
967.000000	 73.832134  
966.000000	 74.059358  
965.000000	 73.980862  
964.000000	 73.557158  
963.000000	 72.815730  
962.000000	 71.844857  
961.000000	 70.776835  
960.000000	 69.763493  
959.000000	 68.935010  
958.000000	 68.358074  
957.000000	 68.029168  
956.000000	 67.903395  
955.000000	 67.925972  
954.000000	 68.058244  
953.000000	 68.306611  
952.000000	 68.731107  
951.000000	 69.408842  
950.000000	 70.382671  
949.000000	 71.641884  
948.000000	 73.126661  
947.000000	 74.728180  
946.000000	 76.304113  
945.000000	 77.728913  
944.000000	 78.935313  
943.000000	 79.905035  
942.000000	 80.636645  
941.000000	 81.134627  
940.000000	 81.414295  
939.000000	 81.497763  
938.000000	 81.405552  
937.000000	 81.158381  
936.000000	 80.780472  
935.000000	 80.293368  
934.000000	 79.714024  
933.000000	 79.067874  
932.000000	 78.395162  
931.000000	 77.732096  
930.000000	 77.093679  
929.000000	 76.490100  
928.000000	 75.951023  
927.000000	 75.511561  
926.000000	 75.177604  
925.000000	 74.928576  
924.000000	 74.756110  
923.000000	 74.679044  
922.000000	 74.717056  
921.000000	 74.867205  
920.000000	 75.108404  
919.000000	 75.412492  
918.000000	 75.750471  
917.000000	 76.104775  
916.000000	 76.478907  
915.000000	 76.885544  
914.000000	 77.328174  
913.000000	 77.804573  
912.000000	 78.320565  
911.000000	 78.883498  
910.000000	 79.484842  
909.000000	 80.103651  
908.000000	 80.724574  
907.000000	 81.339822  
906.000000	 81.937826  
905.000000	 82.504484  
904.000000	 83.035785  
903.000000	 83.540386  
902.000000	 84.029620  
901.000000	 84.507048  
900.000000	 84.960698  
899.000000	 85.362188  
898.000000	 85.684382  
897.000000	 85.927668  
896.000000	 86.119551  
895.000000	 86.281849  
894.000000	 86.408450  
893.000000	 86.482792  
892.000000	 86.505842  
891.000000	 86.496137  
890.000000	 86.471623  
889.000000	 86.442438  
888.000000	 86.412191  
887.000000	 86.372492  
886.000000	 86.303073  
885.000000	 86.191801  
884.000000	 86.050136  
883.000000	 85.895710  
882.000000	 85.725017  
881.000000	 85.518398  
880.000000	 85.266767  
879.000000	 84.975239  
878.000000	 84.642433  
877.000000	 84.254440  
876.000000	 83.798875  
875.000000	 83.267660  
874.000000	 82.649368  
873.000000	 81.941739  
872.000000	 81.173785  
871.000000	 80.394767  
870.000000	 79.638905  
869.000000	 78.921898  
868.000000	 78.273574  
867.000000	 77.747357  
866.000000	 77.387199  
865.000000	 77.203293  
864.000000	 77.184464  
863.000000	 77.311026  
862.000000	 77.546206  
861.000000	 77.835568  
860.000000	 78.129166  
859.000000	 78.396580  
858.000000	 78.618820  
857.000000	 78.780471  
856.000000	 78.877051  
855.000000	 78.920367  
854.000000	 78.929509  
853.000000	 78.920991  
852.000000	 78.908994  
851.000000	 78.908685  
850.000000	 78.938332  
849.000000	 79.021566  
848.000000	 79.180294  
847.000000	 79.414900  
846.000000	 79.698918  
845.000000	 80.008465  
844.000000	 80.351701  
843.000000	 80.753252  
842.000000	 81.214232  
841.000000	 81.705393  
840.000000	 82.197486  
839.000000	 82.680894  
838.000000	 83.155128  
837.000000	 83.615444  
836.000000	 84.053204  
835.000000	 84.456223  
834.000000	 84.804021  
833.000000	 85.072846  
832.000000	 85.252032  
831.000000	 85.352526  
830.000000	 85.397926  
829.000000	 85.409514  
828.000000	 85.396918  
827.000000	 85.355214  
826.000000	 85.270987  
825.000000	 85.139895  
824.000000	 84.978943  
823.000000	 84.814046  
822.000000	 84.659575  
821.000000	 84.519242  
820.000000	 84.397121  
819.000000	 84.293568  
818.000000	 84.198251  
817.000000	 84.102922  
816.000000	 84.018805  
815.000000	 83.968132  
814.000000	 83.957284  
813.000000	 83.968549  
812.000000	 83.979738  
811.000000	 83.982140  
810.000000	 83.977821  
809.000000	 83.969088  
808.000000	 83.954314  
807.000000	 83.929028  
806.000000	 83.890228  
805.000000	 83.843048  
804.000000	 83.800619  
803.000000	 83.772255  
802.000000	 83.754660  
801.000000	 83.739060  
800.000000	 83.720335  
799.000000	 83.692328  
798.000000	 83.643058  
797.000000	 83.566724  
796.000000	 83.475419  
795.000000	 83.387155  
794.000000	 83.306180  
793.000000	 83.225948  
792.000000	 83.145775  
791.000000	 83.069928  
790.000000	 82.991939  
789.000000	 82.893979  
788.000000	 82.763128  
787.000000	 82.598410  
786.000000	 82.403290  
785.000000	 82.183110  
784.000000	 81.950508  
783.000000	 81.721062  
782.000000	 81.497895  
781.000000	 81.265461  
780.000000	 81.000303  
779.000000	 80.686676  
778.000000	 80.328199  
777.000000	 79.950868  
776.000000	 79.587816  
775.000000	 79.250873  
774.000000	 78.920013  
773.000000	 78.567901  
772.000000	 78.189044  
771.000000	 77.796825  
770.000000	 77.402316  
769.000000	 77.012162  
768.000000	 76.643233  
767.000000	 76.322156  
766.000000	 76.065767  
765.000000	 75.868374  
764.000000	 75.707005  
763.000000	 75.555466  
762.000000	 75.401285  
761.000000	 75.256907  
760.000000	 75.149088  
759.000000	 75.093530  
758.000000	 75.084912  
757.000000	 75.105155  
756.000000	 75.124652  
755.000000	 75.106985  
754.000000	 75.052126  
753.000000	 75.037350  
752.000000	 75.162803  
751.000000	 75.428263  
750.000000	 75.703326  
749.000000	 75.856629  
748.000000	 75.886441  
747.000000	 75.886386  
746.000000	 75.913655  
745.000000	 75.945786  
744.000000	 75.950235  
743.000000	 75.932629  
742.000000	 75.907903  
741.000000	 75.871403  
740.000000	 75.814489  
739.000000	 75.740196  
738.000000	 75.655975  
737.000000	 75.572077  
736.000000	 75.504340  
735.000000	 75.455343  
734.000000	 75.399402  
733.000000	 75.311409  
732.000000	 75.201735  
731.000000	 75.096237  
730.000000	 74.995411  
729.000000	 74.885507  
728.000000	 74.773303  
727.000000	 74.671441  
726.000000	 74.563130  
725.000000	 74.423084  
724.000000	 74.264873  
723.000000	 74.125740  
722.000000	 74.011301  
721.000000	 73.894267  
720.000000	 73.762932  
719.000000	 73.628179  
718.000000	 73.483215  
717.000000	 73.307778  
716.000000	 73.113130  
715.000000	 72.935123  
714.000000	 72.780514  
713.000000	 72.624540  
712.000000	 72.465657  
711.000000	 72.335457  
710.000000	 72.245053  
709.000000	 72.165349  
708.000000	 72.069064  
707.000000	 71.953725  
706.000000	 71.820441  
705.000000	 71.668502  
704.000000	 71.513210  
703.000000	 71.368744  
702.000000	 71.211554  
701.000000	 71.007176  
700.000000	 70.774972  
699.000000	 70.573693  
698.000000	 70.419359  
697.000000	 70.267364  
696.000000	 70.081851  
695.000000	 69.871013  
694.000000	 69.642549  
693.000000	 69.385691  
692.000000	 69.115083  
691.000000	 68.871326  
690.000000	 68.655635  
689.000000	 68.413151  
688.000000	 68.106758  
687.000000	 67.759770  
686.000000	 67.402101  
685.000000	 67.036102  
684.000000	 66.669507  
683.000000	 66.315310  
682.000000	 65.954330  
681.000000	 65.559542  
680.000000	 65.157741  
679.000000	 64.803296  
678.000000	 64.496856  
677.000000	 64.201966  
676.000000	 63.926104  
675.000000	 63.707225  
674.000000	 63.545590  
673.000000	 63.413359  
672.000000	 63.312430  
671.000000	 63.246414  
670.000000	 63.174111  
669.000000	 62.982017  
668.000000	 62.665192  
667.000000	 62.544375  
666.000000	 62.658505  
665.000000	 62.741580  
664.000000	 62.698252  
663.000000	 62.588991  
662.000000	 62.481827  
661.000000	 62.367417  
660.000000	 62.223065  
659.000000	 62.083663  
658.000000	 61.987209  
657.000000	 61.917449  
656.000000	 61.861067  
655.000000	 61.790433  
654.000000	 61.692258  
653.000000	 61.461429  
652.000000	 61.477087  
651.000000	 61.370202  
650.000000	 61.293625  

